Name,Season,Team,Conference,Games Coached,Games Played,Wins,Losses,Ties,Receiver PPR PPG,#1 Receiver PPR PPG,#2 Receiver PPR PPG,#3 Receiver PPR PPG,Rusher PPR PPG,#1 Rusher PPR PPG,#2 Rusher PPR PPG,Preseason Rank,Postseason Rank,SRS,Overall S&P,Offense S&P,Defense S&P,Pass Attempts,Pass Completions,Net Pass Yards,Pass TDs,Rush Attempts,Rush Yards,Rush TDs,Total Yards,Offense Plays,Offense Plays per Minute of Possession,Offense Plays per Minute of Possession (Neutral),Offense Plays per Game,Offense Drives,Offense EPA/Play,Offense Total EPA,Offense Points/Opportunity,Offense Success Rate,Offense Explosiveness,Offense Power Success,Offense Line Yards,Offense Second Level Yards,Offense Open Field Yards,Offense Starting Avg Field Pos,Offense Starting Avg Field Pos xPoints,Offense Time of Possession,Offense Rush Rate,"Offense Rush Rate (Neutral, Early Down)",Offense Rush EPA/Play,Offense Rush Total EPA,Offense Rush Success Rate,Offense Rush Explosiveness,Offense Pass Rate,Offense Pass Rate Over Expected,"Offense Pass Rate (Neutral, Early Down)",Offense Pass EPA/Play,Offense Pass Total EPA,Offense Pass Success Rate,Offense Pass Explosiveness,Offense Std Down EPA/Play,Offense Std Down Success Rate,Offense Pass Down Rate,Offense Pass Down EPA/Play,Offense Pass Down Success Rate,Offense Havoc Rate,Offense Front 7 Havoc Rate,Offense Defensive Back Havoc Rate,Defense Plays,Defense Drives,Defense EPA/Play,Defense Total EPA,Defense Points/Opportunity,Defense Success Rate,Defense Explosiveness,Defense Power Success,Defense Line Yards,Defense Second Level Yards,Defense Open Field Yards,Defense Starting Avg Field Pos,Defense Starting Avg Field Pos xPoints,Defense Rush Rate,Defense Rush EPA/Play,Defense Rush Total EPA,Defense Rush Success Rate,Defense Rush Explosiveness,Defense Pass Rate,Defense Pass Rate Over Expected,Defense Pass EPA/Play,Defense Pass Success Rate,Defense Pass Explosiveness,Defense Std Down EPA/Play,Defense Std Down Success Rate,Defense Pass Down Rate,Defense Pass Down EPA/Play,Defense Pass Down Success Rate,Defense Havoc Rate,Defense Front 7 Havoc Rate,Defense Defensive Back Havoc Rate
Troy Calhoun,2026,Air Force,Mountain West,0,4,0,0,0,16.625,7.025,4.575,1.725,11.05,7.2,3.45,NA,NA,-9.4,-3.4,26.2,29.7,47,23,372,3,251,1189,11,1561,307,2.13441483198146,1.8926934483688325,76.75,43,0.18971824112530677,58.24350002546918,4.363636363636363,0.4527687296416938,1.085243554507675,0.8235294117647058,3.527710843373494,1.0923694779116466,0.5381526104417671,72.4,1.159,8630,0.8110749185667753,0.8588235294117647,0.24389844670505664,60.73071322955911,0.4738955823293173,0.9617303582725373,0.15960912052117263,-0.30602471844408424,0.1411764705882353,0.07046438688853977,3.452754957538449,0.3877551020408163,1.8819696687106726,0.20666172556999224,0.5219298245614035,0.25732899022801303,0.14081805817102466,0.25316455696202533,0.072,0.033,0.039,222,43,6.029415712754172e-4,0.13385302882314262,3.6,0.3333333333333333,1.3897746329707197,0.7272727272727273,2.9316239316239314,1.0085470085470085,1.0427350427350428,72.3,-1.234,0.527027027027027,0.03794525405338183,4.439594724245675,0.36752136752136755,1.0409457553961028,0.44594594594594594,-0.056882839861087664,0.008355544962224407,0.31313131313131315,1.873634043800027,-0.012351782209500612,0.4154929577464789,0.36036036036036034,0.02359757628215287,0.1875,0.144,0.072,0.072
Joe Moorhead,2026,Akron,Mid-American,0,5,0,0,0,24.380000000000003,6.08,4.26,4.0600000000000005,23.5,12.24,8.72,NA,NA,-21.8,-23.1,14,36.6,163,106,985,7,164,705,5,1690,330,2.1883289124668437,1.8894177956792384,66,58,0.05222248894007808,17.233421350225765,3.6923076923076925,0.4303030303030303,1.0399541429770673,0.8125,3.6925675675675675,1.3986486486486487,0.7905405405405406,74,1.121,9048,0.4484848484848485,0.5316455696202531,0.17402985888144845,25.75641911445437,0.5,0.8143903057601095,0.5181818181818182,0.05060045963720139,0.46835443037974683,0.024288143434727485,4.1532725273384,0.391812865497076,1.2747231034666553,-0.0013151449270850193,0.4805194805194805,0.3,0.1771436346301253,0.31313131313131315,0.194,0.109,0.085,308,58,0.2827673338122517,87.09233881417353,4.103448275862069,0.4448051948051948,1.386492219418027,0.75,3.212422360248447,1.1366459627329193,1.8074534161490683,70.1,-1.381,0.5227272727272727,0.16605565846805367,26.73496101335664,0.4782608695652174,1.0035684553908262,0.4577922077922078,0.01799143365554745,0.4773941289540051,0.3971631205673759,1.983613717572109,0.17339984022882537,0.5,0.3051948051948052,0.5317529043106904,0.3191489361702128,0.133,0.071,0.062
Kalen DeBoer,2026,Alabama,SEC,0,5,0,0,0,44.480000000000004,16.18,12.5,10.8,33.32000000000001,11.540000000000001,11.46,NA,NA,31.8,23,39.6,16.6,136,97,1437,11,192,932,17,2369,330,1.9611727416798732,2.0545560069645967,66,58,0.3494682643119571,115.32452722294585,5.685714285714286,0.5121212121212121,1.3078783174963176,0.7894736842105263,3.1635359116022097,1.2486187845303867,1.447513812154696,66.5,1.642,10096,0.5484848484848485,0.5353535353535354,0.23914112241518332,43.28454315714818,0.5248618784530387,1.0300336951185964,0.43636363636363634,0.05284072991904859,0.46464646464646464,0.5209314993913724,75.01413591235763,0.5,1.6937411374195104,0.27979314238737957,0.5596707818930041,0.2636363636363636,0.5440780876185358,0.3793103448275862,0.148,0.1,0.048,320,62,-0.11274465468829108,-36.07828950025314,3.9047619047619047,0.34375,1.3655835365468805,0.5714285714285714,2.0349315068493152,0.7191780821917808,0.726027397260274,74.1,-1.02,0.45625,-0.2348362175308984,-34.28608775951117,0.2945205479452055,0.86834246184254,0.509375,-0.0023602524699716243,0.016054369024170557,0.3803680981595092,1.7374227711696282,-0.1638062037495547,0.3961352657004831,0.353125,-0.0192071267619055,0.24778761061946902,0.2,0.119,0.081
Dowell Loggains,2026,App State,Sun Belt,0,4,0,0,0,48.9,17.65,12.525,7.699999999999999,22.974999999999998,13.325,4.4,NA,NA,-7.4,-4.4,25.3,29.8,143,104,1277,7,138,580,10,1857,288,2.279683377308707,2.0201238390092877,72,48,0.2375017412396011,68.40050147700512,3.694444444444444,0.4548611111111111,1.3124452763172334,0.6666666666666666,2.576865671641791,1.0223880597014925,1.0970149253731343,69.9,1.377,7580,0.4652777777777778,0.5555555555555556,0.04817472608653987,6.455413295596342,0.3880597014925373,1.0756465421633181,0.5034722222222222,0.07623227450863596,0.4444444444444444,0.47535632590974325,68.92666725691276,0.5241379310344828,1.463769496724889,0.10608544672316844,0.4587628865979381,0.3263888888888889,0.5087226043905366,0.44680851063829785,0.122,0.08,0.042,272,47,0.0798890370195323,21.729818069312785,3.7272727272727275,0.4227941176470588,1.1322274576006577,0.8421052631578947,2.6203125,0.9375,0.7421875,73.6,-1.09,0.47058823529411764,0.05068774141215584,6.488030900755947,0.4296875,0.8427094523326385,0.5036764705882353,-0.00272570249314108,0.13173885846506928,0.41605839416058393,1.396512535395778,0.1331905121367638,0.5104166666666666,0.29411764705882354,-0.048034503261823326,0.2125,0.176,0.107,0.07
Brent Brennan,2026,Arizona,Big 12,0,5,0,0,0,55.42,15.64,8.52,6.959999999999999,22.380000000000003,10.5,5.32,NA,NA,8.8,10.7,32.3,21.3,178,129,1482,13,172,775,7,2257,359,2.163954189270645,2.163077667553835,71.8,56,0.21743295500558424,78.05843084700474,4.428571428571429,0.4958217270194986,1.1557671315348004,0.8333333333333334,3.4743589743589745,1.3974358974358974,1.0064102564102564,72.2,1.227,9954,0.43454038997214484,0.416,0.1403294395893406,21.891392575937132,0.4935897435897436,0.7784999899676128,0.532033426183844,0.13856055183330768,0.584,0.3147695874367162,60.12099120041279,0.5078534031413613,1.4435725862398812,0.06955197996903684,0.5222672064777328,0.31197771587743733,0.543563319595113,0.4375,0.123,0.078,0.045,306,52,-0.013422587107005477,-4.107311654743676,2.5,0.3431372549019608,1.4606626941184857,0.9166666666666666,2.6601694915254237,0.9661016949152542,0.7372881355932204,73.7,-1.101,0.38562091503267976,0.008113914831110708,0.9574419500710636,0.3389830508474576,1.1113246890563342,0.5915032679738562,0.049213805995193316,0.036236417532504415,0.34806629834254144,1.6604881445658783,-0.1984898965343762,0.3825136612021858,0.4019607843137255,0.26192145862639976,0.2845528455284553,0.167,0.114,0.052
Kenny Dillingham,2026,Arizona State,Big 12,0,4,0,0,0,45.725,26.475,14.725000000000001,2.225,30.700000000000003,9.200000000000001,6.9,NA,NA,-0.9,3,26.3,22.8,137,84,1091,10,137,596,5,1687,276,2.3099455991072673,2.389830508474576,69,52,0.024659338805448065,6.805977510303666,3.3703703703703702,0.4166666666666667,1.259955996194931,0.7777777777777778,2.8261194029850745,1.1343283582089552,1.1865671641791045,69.8,1.365,7169,0.4855072463768116,0.44,-0.013857794124734795,-1.8569444127144625,0.39552238805970147,0.8970161785905973,0.5036231884057971,0.045733084162587645,0.56,0.1511207251985749,21.005780802601908,0.4460431654676259,1.5702110015663773,-0.00719965636141004,0.46994535519125685,0.33695652173913043,0.08734961961765272,0.3118279569892473,0.163,0.105,0.058,271,53,0.14003066315793194,37.94830971579956,3.413793103448276,0.3800738007380074,1.378069480544152,0.6923076923076923,2.9359375,0.90625,1.515625,68.8,-1.469,0.47232472324723246,0.07719830317369478,9.881382806232931,0.375,1.076625096013732,0.4833948339483395,0.0049607121167285495,0.24000886043507402,0.3816793893129771,1.658956742119148,0.06865224651480212,0.43023255813953487,0.36531365313653136,0.2640416496490262,0.29292929292929293,0.137,0.081,0.055
Ryan Silverfield,2026,Arkansas,SEC,0,5,0,0,0,36.540000000000006,19.740000000000002,5.5600000000000005,2.8400000000000003,18.44,7.62,5.0200000000000005,NA,NA,-2.2,-0.3,28.1,28.7,186,112,1214,7,162,461,4,1675,353,2.2472148541114056,2.1747009786154403,70.6,55,0.014615737343640571,5.159355282305122,3.2666666666666666,0.41076487252124644,1.114178386286564,0.8095238095238095,2.6554054054054053,0.7905405405405406,0.35135135135135137,72.4,1.21,9425,0.4192634560906516,0.4358974358974359,-0.09542091397068077,-14.122295267660753,0.3783783783783784,0.6105107328959907,0.5580736543909348,0.09105390445020595,0.5641025641025641,0.131040920042294,25.81506124833192,0.4365482233502538,1.434018099170883,-0.06806680469413104,0.48660714285714285,0.3654390934844193,0.1581885235177556,0.27906976744186046,0.184,0.096,0.088,300,55,0.1668779958231954,50.06339874695862,5.071428571428571,0.4266666666666667,1.1053925131519704,0.84,3.1592592592592594,1.117283950617284,1.0987654320987654,69.2,-1.438,0.54,0.19924828128466981,32.27822156811651,0.4567901234567901,0.9573163897332614,0.43,0.012359355212893441,0.17283751284785556,0.4108527131782946,1.3313834352367324,0.17182925563693474,0.5069124423963134,0.27666666666666667,0.1539331358282383,0.21686746987951808,0.123,0.083,0.04
Butch Jones,2026,Arkansas State,Sun Belt,0,5,0,0,0,33.36,12.040000000000001,10.459999999999999,9.72,24.86,8.26,8.040000000000001,NA,NA,-8.6,-9.5,23.3,32.7,133,89,1043,5,153,699,8,1742,290,1.97884680996247,1.8749999999999998,58,48,0.15435089780757824,44.76176036419769,3.5357142857142856,0.4724137931034483,1.1530071131547588,0.72,3.3205479452054796,1.1575342465753424,0.9452054794520548,69.4,1.413,8793,0.503448275862069,0.5106382978723404,0.2113384358160704,30.85541162914628,0.4931506849315068,0.9270867298680288,0.4724137931034483,0.014912775711070525,0.48936170212765956,0.1488346958345427,20.390353329332353,0.45985401459854014,1.4314778494933929,0.12697257052822533,0.5308056872037915,0.27241379310344827,0.22747529092078667,0.31645569620253167,0.152,0.083,0.069,321,52,0.18821781787355665,60.417919537411684,3.555555555555556,0.4766355140186916,1.1621420996246188,0.8076923076923077,3.5185185185185186,1.253968253968254,1.2962962962962963,74,-1.115,0.5887850467289719,0.06876093927787506,12.995817523518388,0.48677248677248675,0.8507391589453406,0.38006230529595014,-0.06868754296618351,0.4631156952942285,0.47540983606557374,1.6939802712524146,0.14554252029389025,0.5213675213675214,0.27102803738317754,0.30299965274300417,0.3563218390804598,0.115,0.069,0.047
Jeff Monken,2026,Army,American Athletic,0,4,0,0,0,38.449999999999996,13.325,12.399999999999999,7.025,16.5,9.700000000000001,4.75,NA,NA,4.6,-0.8,26.1,27,54,32,394,3,210,1337,15,1731,273,1.9663865546218489,1.696750902527076,68.25,39,0.3311863092976259,90.41386243825187,4.214285714285714,0.5311355311355311,1.0918335183515915,0.9090909090909091,3.650239234449761,1.3588516746411483,1.9138755980861244,71.5,1.308,8330,0.7655677655677655,0.8521739130434782,0.39767440661911846,83.11395098339577,0.5598086124401914,1.0514194589136479,0.20146520146520147,-0.26643858550573296,0.14782608695652175,0.15259927610163426,8.392960185589885,0.4727272727272727,1.2643367977953333,0.2813868030028765,0.5915492957746479,0.21978021978021978,0.5079745566439862,0.31666666666666665,0.077,0.055,0.022,220,39,0.22961578403420732,50.515472487525614,2.6842105263157894,0.45,1.301004915029064,0.8181818181818182,3.2152542372881356,1.2372881355932204,1.7542372881355932,77.1,-0.919,0.5363636363636364,0.22498584001812957,26.54832912213929,0.4576271186440678,1.112280707400598,0.45,-0.0202203868585496,0.27463160616840954,0.45454545454545453,1.527473964183223,0.1589890055073267,0.4967741935483871,0.29545454545454547,0.39803348667523036,0.3384615384615385,0.123,0.064,0.059
Alex Golesh,2026,Auburn,SEC,0,5,0,0,0,38.68,13.440000000000001,12.86,5.84,18.84,9.379999999999999,6.7,NA,NA,9.9,11.4,28.7,17.5,163,106,1096,8,186,900,7,1996,351,2.6617795753286146,2.6810477657935285,70.2,58,0.07426725688615962,26.06780716704203,3.774193548387097,0.42165242165242167,1.2584932896651677,0.7894736842105263,3.3210843373493977,1.283132530120482,1.6686746987951806,73.3,1.183,7912,0.47293447293447294,0.5081967213114754,0.18325641568255613,30.42056500330432,0.4578313253012048,1.0765624003197265,0.50997150997151,0.009805023573015048,0.4918032786885246,0.04374759800294024,7.830820042526303,0.39664804469273746,1.455381455685535,-0.017159232822760887,0.452991452991453,0.3333333333333333,0.25712023630400066,0.358974358974359,0.162,0.105,0.057,385,60,0.008064570863361042,3.1048597823940014,3.2413793103448274,0.38441558441558443,1.1752586854877087,0.7333333333333333,2.7974358974358973,0.7230769230769231,0.8051282051282052,71.2,-1.357,0.5064935064935064,0.047391187916692036,9.241281643754947,0.38461538461538464,0.8965810858291557,0.44935064935064933,-0.01883249821227645,0.06635202623753726,0.3988439306358382,1.4764340385215207,-0.028524038792976873,0.43956043956043955,0.2909090909090909,0.09724930690068471,0.25,0.166,0.114,0.052
Kalani Sitake,2026,BYU,Big 12,0,4,0,0,0,35.6,18.175,9.2,4.125,32.6,15.375,6.6,NA,NA,15.5,16.3,34.3,18.2,89,56,719,6,155,942,13,1661,250,1.9807209824376075,1.91415313225058,62.5,45,0.32352678634331045,80.88169658582761,5.461538461538462,0.528,1.1472433179063248,0.8695652173913043,3.6927631578947366,1.5328947368421053,1.5723684210526316,68.7,1.532,7573,0.608,0.5529411764705883,0.4066965179731359,61.81787073191665,0.5723684210526315,1.0650957706464759,0.368,-0.02719971334462057,0.4470588235294118,0.1834508812888239,16.877481078571797,0.45652173913043476,1.2852168510564068,0.30455077116383217,0.6084656084656085,0.244,0.3823213251780874,0.2786885245901639,0.084,0.04,0.044,244,43,-0.06793588222124998,-16.576355261984993,3.4375,0.36885245901639346,1.1950330643027196,0.6666666666666666,2.4,0.7058823529411765,0.5686274509803921,72.7,-1.147,0.4180327868852459,-0.11275283300207097,-11.500788966211239,0.3431372549019608,0.8372193202248381,0.5491803278688525,0.01184317891250597,0.027858646441519506,0.39552238805970147,1.4515772906975515,-0.1775226339903461,0.39622641509433965,0.3483606557377049,0.13705580638211806,0.3176470588235294,0.18,0.111,0.07
Mike Uremovich,2026,Ball State,Mid-American,0,5,0,0,0,29.32,9.6,7.44,5.1,26.9,12.88,9.580000000000002,NA,NA,-13.7,-25,12.8,37.5,152,95,871,6,148,617,6,1488,307,2.1949475691134417,1.7923691215616682,61.4,58,0.047172685931662274,14.482014581020318,3.5714285714285716,0.34527687296416937,1.4363157126396162,0.8333333333333334,2.5963503649635036,0.9854014598540146,1.8613138686131387,72.9,1.21,8392,0.44625407166123776,0.5294117647058824,0.050039314983828104,6.85538615278445,0.3357664233576642,1.1949698785240641,0.511400651465798,0.01927788257410734,0.47058823529411764,0.15036322854954176,23.607026882278056,0.37579617834394907,1.5757776602468232,-0.04694726374791532,0.3888888888888889,0.3550488599348534,0.2181428697532803,0.26605504587155965,0.192,0.134,0.059,357,57,0.2921916377446789,104.31241467485036,4.647058823529412,0.4425770308123249,1.428600696175892,0.8076923076923077,3.1544973544973547,1.1481481481481481,2.232804232804233,70.9,-1.372,0.5294117647058824,0.2642653933556187,49.94615934421194,0.42857142857142855,1.3145294361105169,0.45098039215686275,0.00698393452198659,0.3744492215058517,0.4720496894409938,1.553871583287477,0.267936925291847,0.49193548387096775,0.30532212885154064,0.3473766715823147,0.3302752293577982,0.118,0.073,0.045
Dave Aranda,2026,Baylor,Big 12,0,5,0,0,0,54.86,20.380000000000003,11.66,10.64,28.18,9.120000000000001,8.76,NA,NA,11,8.1,28.5,20.8,202,119,1447,13,202,860,8,2307,411,2.6645056726094003,2.5847693162868257,82.2,69,0.15562686752271615,63.96264255183633,3.763157894736842,0.40145985401459855,1.3701917102541488,0.7619047619047619,2.9515463917525775,0.8608247422680413,1.1237113402061856,64.5,1.833,9255,0.4720194647201946,0.5655737704918032,0.10865632918545672,21.0793278619786,0.422680412371134,0.9986767978591108,0.5012165450121655,0.07654233097815344,0.4344262295081967,0.25062109089493906,51.62794472435745,0.3932038834951456,1.7516379553588564,0.00234558579016255,0.43636363636363634,0.3309002433090024,0.46557063573192375,0.33088235294117646,0.151,0.095,0.056,364,65,-0.10525188140842594,-38.31168483266704,2.129032258064516,0.34065934065934067,1.077126629774228,0.4,2.656862745098039,0.9215686274509803,0.5294117647058824,71.9,-1.296,0.42032967032967034,-0.23413168889184965,-35.822148400452996,0.3006535947712418,0.8129584700960717,0.554945054945055,0.042454475208240416,-0.0023243645017167708,0.36633663366336633,1.2632023256161526,-0.13541008020678494,0.3869565217391304,0.36813186813186816,-0.053487808844078416,0.26119402985074625,0.203,0.132,0.071
Spencer Danielson,2026,Boise State,Pac-12,0,5,0,0,0,32.44,14.3,6.32,5.840000000000001,34.1,21.82,10.64,NA,NA,11.5,7.6,32.4,24.8,132,87,1058,11,214,1133,9,2191,351,1.9471153846153848,1.5740162398500936,70.2,54,0.30154374676769247,105.84185511546005,4.4411764705882355,0.4928774928774929,1.1920806398454544,0.7777777777777778,3.4514423076923078,1.0192307692307692,1.3653846153846154,75.2,1.085,10816,0.5925925925925926,0.6296296296296297,0.21028346179345125,43.73896005303786,0.4951923076923077,0.9491218088886941,0.38746438746438744,-0.020266009118912576,0.37037037037037035,0.4171575423872803,56.73342576467012,0.47794117647058826,1.5710120504206466,0.22566661582281014,0.5296442687747036,0.2792022792022792,0.49743062563560286,0.3979591836734694,0.091,0.06,0.031,279,57,1.6288970095104882e-4,0.045446226565342626,2.6129032258064515,0.34767025089605735,1.666236224041167,0.75,2.587719298245614,0.9122807017543859,2.236842105263158,70.1,-1.354,0.40860215053763443,0.09530122435815173,10.864339576829298,0.3333333333333333,1.2454181014559993,0.5627240143369175,0.02656010435228895,0.02409580448840529,0.3630573248407643,1.9749058234655623,-0.02174199666698494,0.4117647058823529,0.3906810035842294,0.03432647394452094,0.24770642201834864,0.201,0.122,0.079
Bill O'Brien,2026,Boston College,ACC,0,5,0,0,0,28.660000000000004,7.140000000000001,7,6.36,16.78,13.440000000000001,2.3,NA,NA,-14.7,-4.6,20.9,25.6,140,81,967,5,180,765,6,1732,327,2.1648460774577956,1.8889689978370585,65.4,58,5.698653913700051e-4,0.18634598297799168,2.888888888888889,0.39143730886850153,1.25219600985962,0.6363636363636364,2.743452380952381,1.3452380952380951,1.3095238095238095,72.2,1.241,9063,0.5137614678899083,0.5740740740740741,0.02542759810817765,4.271836482173845,0.44047619047619047,1.0130858052968916,0.44954128440366975,-0.017933180125406623,0.42592592592592593,0.07091911874949156,10.42511045617526,0.35374149659863946,1.6324335432268835,0.007046902507507351,0.4604651162790698,0.3425076452599388,-0.011863732644072223,0.25892857142857145,0.196,0.138,0.058,340,57,0.015808108191269665,5.3747567850316855,3.4193548387096775,0.38823529411764707,1.261554106826239,0.6521739130434783,2.7605405405405405,1.037837837837838,1.1135135135135135,67.8,-1.549,0.5441176470588235,0.008908540675748217,1.6480800250134202,0.372972972972973,1.0877816107121896,0.4323529411764706,-0.012592888510461586,0.1443168532716363,0.4217687074829932,1.4557144726001099,-0.064405937772622393,0.40707964601769914,0.3352941176470588,0.17482893615477496,0.3508771929824561,0.182,0.135,0.047
Eddie George,2026,Bowling Green,Mid-American,0,5,0,0,0,16.7,8.540000000000001,7.1,0.5,14.2,8,5.04,NA,NA,-15.7,-26.4,9.2,35.7,133,84,869,4,155,426,2,1295,290,1.9301164725457571,1.7464424320827945,58,54,-0.06237071160118072,-18.087506364342406,1.6363636363636365,0.3689655172413793,0.982845120641303,0.7857142857142857,2.3945578231292517,0.6054421768707483,0.3741496598639456,73,1.185,9015,0.506896551724138,0.6355140186915887,-0.23276318563986403,-34.216188289060014,0.32653061224489793,0.5760464706754842,0.46551724137931033,-0.05647889984414939,0.3644859813084112,0.12534707149666208,16.92185465204938,0.4074074074074074,1.3962829087728903,-0.0854768970170928,0.4517766497461929,0.32068965517241377,-0.013425351096506749,0.1935483870967742,0.19,0.131,0.059,303,52,0.18440166953372372,55.87370586871829,4.03125,0.46864686468646866,1.2830482776813854,0.75,3.458757062146893,1.423728813559322,2.5932203389830506,68.8,-1.543,0.5841584158415841,0.22695309221330928,40.17069732175574,0.4915254237288136,1.180478580887282,0.38943894389438943,-0.017802826020245743,0.22252673538535142,0.4576271186440678,1.4589548642678754,0.15121980201636354,0.5294117647058824,0.2706270627062706,0.2738308490622189,0.3048780487804878,0.125,0.099,0.026
Pete Lembo,2026,Buffalo,Mid-American,0,5,0,0,0,32.5,21.6,3.54,3.54,20.1,9.7,4.4799999999999995,NA,NA,-24.3,-17.2,14.5,32.1,159,84,808,7,206,760,5,1568,374,2.3771186440677967,2.3878627968337733,74.8,65,0.014172854761825417,5.300647680922705,3.8,0.3502673796791444,1.1880248750634237,0.7142857142857143,2.751758793969849,0.7336683417085427,0.7487437185929648,72.7,1.225,9440,0.5320855614973262,0.5928571428571429,-0.01482692432403651,-2.9505579404832654,0.36180904522613067,0.8849427113090688,0.4385026737967914,-0.03759799878278819,0.40714285714285714,0.07115832501786776,11.669965302930313,0.3353658536585366,1.550344929797138,0.006575423307797503,0.4015444015444015,0.3074866310160428,0.031283591688723064,0.23478260869565218,0.16,0.104,0.056,337,64,0.11598996202712794,39.088617203142114,3.606060606060606,0.3857566765578635,1.3193711945481517,0.7142857142857143,3.0792682926829267,1.1402439024390243,1.2682926829268293,69.5,-1.435,0.486646884272997,0.024997319639935494,4.0995604209494205,0.4024390243902439,0.8707198999925015,0.4896142433234421,0.007130678915759414,0.2542168154854554,0.3878787878787879,1.7820428420586658,0.10571524415485048,0.46153846153846156,0.34421364985163205,0.13556507107689794,0.2413793103448276,0.151,0.083,0.068
Tosh Lupoi,2026,California,ACC,0,5,0,0,0,43.9,14.12,11.780000000000001,5.46,28.8,18.279999999999998,6.2,NA,NA,-8.1,-3.2,23.3,26.2,213,137,1505,10,145,475,5,1980,361,2.411758156107338,2.230396902226525,72.2,64,-0.0070991946517639185,-2.5628092692867748,2.65625,0.3850415512465374,1.288248073552838,0.5555555555555556,2.8043795620437955,0.9562043795620438,0.49635036496350365,73.1,1.163,8981,0.37950138504155123,0.5032258064516129,-0.076239518047655,-10.444813972528735,0.3795620437956204,0.8012335781979305,0.6011080332409973,0.09446281395038636,0.4967741935483871,0.09061276725478054,19.66297049428738,0.391705069124424,1.5838130265711148,-0.02702318578345521,0.4449152542372881,0.3462603878116344,0.03051730060486924,0.272,0.169,0.1,0.069,330,65,0.04203683004000962,13.872153913203174,2.967741935483871,0.3484848484848485,1.4449035695527903,0.8947368421052632,3.0787878787878786,1.0363636363636364,2.212121212121212,67.4,-1.617,0.5,0.208597524087407,34.41859147442216,0.3878787878787879,1.2246622860895409,0.4636363636363636,0.015625052901944436,-0.04263597609055439,0.3137254901960784,1.7528586740129808,0.04146930745874431,0.4056603773584906,0.3575757575757576,0.04305644688092696,0.2457627118644068,0.136,0.073,0.064
Matt Drinkall,2026,Central Michigan,Mid-American,0,5,0,0,0,17.419999999999998,5.26,3.88,3.0799999999999996,19.66,6.5200000000000005,5.28,NA,NA,-10.9,-18.7,12.7,31.1,87,50,424,2,203,1011,10,1435,290,1.9441340782122905,1.7852975495915986,58,53,0.09572343476685843,27.759796082388945,3.619047619047619,0.38275862068965516,1.2632918595683693,0.8518518518518519,3.385340314136126,1.1570680628272252,1.2460732984293195,72.6,1.172,8950,0.6586206896551724,0.6625,0.21600354052376483,41.256676240039084,0.44502617801047123,1.1503941918821252,0.32068965517241377,-0.1486503243465888,0.3375,-0.08274848363979015,-7.695608978500484,0.25806451612903225,1.6763184714110533,0.04506801961086331,0.43283582089552236,0.30689655172413793,0.21012499034388113,0.2696629213483146,0.141,0.083,0.059,332,52,0.16821088622233427,55.846014225814976,3.2941176470588234,0.45481927710843373,1.1495314442945435,0.9,3.616265060240964,1.3373493975903614,0.8132530120481928,68.4,-1.583,0.5,0.1806119515447432,29.98158395642737,0.4879518072289157,0.9302697473524107,0.463855421686747,0.001942299077143994,0.12395277393369102,0.4090909090909091,1.331874783433886,0.09251840224334756,0.4978165938864629,0.3102409638554217,0.3364980593406639,0.3592233009708738,0.151,0.066,0.084
Tim Albin,2026,Charlotte,American Athletic,0,5,0,0,0,29.880000000000003,10.42,10.120000000000001,6.980000000000001,20.96,9.56,5.66,NA,NA,-26.5,-27.3,12.2,39.2,150,94,900,3,130,553,6,1453,281,2.117292477709406,1.8529411764705883,56.2,57,-0.0878920711402916,-24.697671990421938,1.9473684210526316,0.35231316725978645,1.1111331706326537,0.5714285714285714,2.276,0.976,1.664,73.8,1.101,7963,0.44483985765124556,0.4939759036144578,-0.0978900014338952,-12.236250179236901,0.368,0.8715384962128051,0.5302491103202847,0.01183215450156816,0.5060240963855421,0.011776356479218255,1.7546771154035201,0.35570469798657717,1.319083265412145,-0.027203375021705726,0.43010752688172044,0.33807829181494664,-0.20671414985668077,0.2,0.189,0.121,0.068,375,61,0.20575570858428463,77.15839071910673,4.472222222222222,0.496,1.1780845220352005,0.8235294117647058,3.038349514563107,1.1213592233009708,1.1359223300970873,67.6,-1.579,0.5493333333333333,0.13910908067718464,28.656470619500038,0.470873786407767,1.0170188691242301,0.41333333333333333,0.07891518776398776,0.4317307809045537,0.5419354838709678,1.3892659943270518,0.12165932300139957,0.5185185185185185,0.28,0.42200355722598903,0.4380952380952381,0.12,0.091,0.029
Scott Satterfield,2026,Cincinnati,Big 12,0,5,0,0,0,32.58,12.540000000000001,7.040000000000001,5.16,35.660000000000004,18.259999999999998,11.56,NA,NA,2.2,9.2,34.4,25.5,131,94,984,6,194,1154,17,2138,326,2.236195266948668,2.1940163191296467,65.2,56,0.2863787170739628,93.35946176611186,4.6571428571428575,0.46319018404907975,1.3495867001687005,0.8148148148148148,3.585714285714286,1.5,2.0164835164835164,69.7,1.427,8747,0.558282208588957,0.6326530612244898,0.31119125620063226,56.63680862851507,0.4725274725274725,1.229565187293725,0.4233128834355828,-0.009455135161770822,0.3673469387755102,0.28639354066464934,39.52230861172161,0.463768115942029,1.5172945686443726,0.28212841409683176,0.5198237885462555,0.30368098159509205,0.29612436127405106,0.3333333333333333,0.117,0.104,0.012,349,55,0.13158544957937254,45.92332190320102,4.1923076923076925,0.4297994269340974,1.196923356954575,0.6842105263157895,3.2328859060402686,1.25503355704698,1.1610738255033557,75.7,-0.977,0.4269340974212034,0.11444789772687491,17.052736761304363,0.46308724832214765,0.8912874142882302,0.5358166189111748,0.05090441954957303,0.2669733346444858,0.41711229946524064,1.466280126561078,0.04517231747013235,0.46382978723404256,0.32664756446991405,0.3097177833133326,0.35964912280701755,0.16,0.103,0.057
Dabo Swinney,2026,Clemson,ACC,0,5,0,0,0,34.519999999999996,11.16,10.9,10.38,18.64,13.2,2.66,NA,NA,3.1,4.9,23.5,18.9,152,96,920,2,181,686,6,1606,335,2.332057083188305,2.3817399933840555,67,62,-0.03833493827455361,-12.842204321975458,2.7857142857142856,0.35522388059701493,1.207169147952001,0.75,2.754777070063694,1.0063694267515924,1.394904458598726,71.1,1.303,8619,0.46865671641791046,0.54,0.06126544894697649,9.61867548467531,0.3630573248407643,1.0262841031982775,0.4955223880597015,0.02092768263968603,0.46,0.0038756159336993355,0.6433522449940897,0.3614457831325301,1.3956268774463474,-0.08650974850819412,0.40825688073394495,0.3492537313432836,0.051426673955648365,0.2564102564102564,0.182,0.143,0.039,352,57,0.07384620573076232,25.99386441722834,2.75,0.4289772727272727,1.1831448637607025,0.72,3.5521212121212122,1.3151515151515152,0.8303030303030303,74.4,-1.083,0.46875,0.2121705890613737,35.00814719512666,0.503030303030303,0.8541538657645064,0.5113636363636364,0.046799493242981105,0.005795436655550654,0.36666666666666664,1.562834999793401,-0.015441249044193764,0.45714285714285713,0.3039772727272727,0.27828944329958705,0.3644859813084112,0.156,0.071,0.085
Ryan Beard,2026,Coastal Carolina,Sun Belt,0,5,0,0,0,50.019999999999996,11.2,10.42,8.16,16.34,7.8199999999999985,4.32,NA,NA,-10.1,-11.4,22.8,34.1,159,86,1273,12,170,659,3,1932,329,2.2596153846153846,2.103505843071786,65.8,59,0.13752196083555834,45.2447251148987,3.5517241379310347,0.4133738601823708,1.312318500297294,0.7,3.5307692307692307,1.3782051282051282,0.9551282051282052,71.8,1.268,8736,0.47416413373860183,0.5365853658536586,0.09363790826106408,14.607513688725996,0.46153846153846156,0.7695609829558638,0.5106382978723404,6.51616020345247e-4,0.4634146341463415,0.20215850951549422,33.96262959860303,0.36904761904761907,1.917851265123663,0.08531129820381599,0.45794392523364486,0.3495440729483283,0.23467919390680067,0.33043478260869563,0.185,0.119,0.067,323,64,0.12268168496333691,39.62618424315782,3.3333333333333335,0.44891640866873067,1.0093446728648696,0.7692307692307693,3.1074468085106384,0.898936170212766,1.5053191489361701,70.6,-1.403,0.5820433436532507,0.013823643031014722,2.598844889830768,0.4308510638297872,0.6596603129645985,0.3715170278637771,5.787727093016226e-4,0.42817242084539814,0.5,1.503590182113604,0.14757732627731127,0.5040322580645161,0.23219814241486067,0.04036009768512839,0.26666666666666666,0.142,0.09,0.053
Deion Sanders,2026,Colorado,Big 12,0,5,0,0,0,46,21.6,9.64,5.36,20.02,8.04,4.0200000000000005,NA,NA,-3.9,-3.3,22.2,25.1,181,111,1267,8,191,704,4,1971,375,2.5025025025025025,2.2242562929061784,75,64,-0.010760721294546124,-4.035270485454796,2.0714285714285716,0.3973333333333333,1.1675250292896484,0.6,2.9649717514124294,0.903954802259887,0.7401129943502824,74.4,1.126,8991,0.472,0.6119402985074627,-0.10270387991916557,-18.178586745692307,0.3785310734463277,0.7870355263940815,0.49866666666666665,0.009380199561176195,0.3880597014925373,0.08804681414679962,16.464754245451527,0.41711229946524064,1.507502974703463,-0.04787838928693891,0.4365079365079365,0.328,0.06528523264108788,0.3170731707317073,0.168,0.104,0.064,347,64,-0.021893994071816733,-7.597215942920406,2.923076923076923,0.3688760806916426,1.197213420432267,0.5714285714285714,2.3959537572254335,1.1040462427745665,0.9075144508670521,67.4,-1.603,0.49855907780979825,-0.13911500041868757,-24.06689507243295,0.4046242774566474,0.7449253079116205,0.4755043227665706,0.02556835351504755,0.16707118733795598,0.34545454545454546,1.7665954879860184,-0.1109679591070911,0.40707964601769914,0.34870317002881845,0.14447556045687754,0.2975206611570248,0.207,0.144,0.063
Jim Mora,2026,Colorado State,Pac-12,0,5,0,0,0,45.260000000000005,18.5,12,9.14,35.9,15.24,12,NA,NA,-5.6,-7.3,26.4,33.6,181,114,1360,14,149,875,10,2235,339,2.6773726470975387,1.51742993848257,67.8,59,0.2411794017479778,81.75981719256448,4.833333333333333,0.44837758112094395,1.432260358328696,0.7931034482758621,2.701360544217687,0.9931972789115646,2.5986394557823127,68.5,1.439,7597,0.4336283185840708,0.5,0.268915232547457,39.530539184476176,0.4557823129251701,1.2482411001518152,0.5427728613569321,0.07606082877988907,0.5,0.2657641612662884,48.90060567299707,0.44565217391304346,1.616476864249824,0.18780248920188455,0.48360655737704916,0.28023598820059,0.3782737876558384,0.35789473684210527,0.159,0.077,0.083,322,60,0.2298617843505109,74.01549456086451,4.388888888888889,0.515527950310559,1.1448771777826547,0.92,3.4566844919786095,1.3636363636363635,2.160427807486631,71.7,-1.318,0.5807453416149069,0.22153980442090454,41.42794342670915,0.5187165775401069,0.8798952011719058,0.38819875776397517,-0.008956303657121079,0.4339625213777256,0.552,1.517388072438345,0.19398214749238002,0.5684647302904564,0.2515527950310559,0.3366147779654436,0.35802469135802467,0.155,0.093,0.062
Ryan Carty,2026,Delaware,Conference USA,0,5,0,0,0,42.18,13.88,9.84,5.4799999999999995,20.660000000000004,8.34,6.0200000000000005,NA,NA,-11.9,-10.7,21.8,32.2,170,87,1305,8,151,494,5,1799,325,2.388827636898199,2.285510857956568,65,63,-0.0025046689855712672,-0.8140174203106619,3.4347826086956523,0.37846153846153846,1.2632388705474216,0.6190476190476191,2.7820143884892086,1,0.5179856115107914,72.7,1.179,8163,0.4276923076923077,0.4666666666666667,0.002777050850428561,0.38601006820957,0.41007194244604317,0.7358939011229342,0.5446153846153846,0.05887505210511679,0.5333333333333333,0.11052083183262196,19.562187234374086,0.3728813559322034,1.7186731623231153,-0.051875017842358116,0.4549763033175355,0.3507692307692308,0.08887378372304298,0.23684210526315788,0.212,0.108,0.105,365,62,0.08972367580291629,32.749141668064446,2.8181818181818183,0.4,1.2797294160324562,0.8823529411764706,2.96453488372093,1.0232558139534884,0.9418604651162791,70.9,-1.353,0.4712328767123288,0.044836946741712666,7.711954839574578,0.4186046511627907,0.9525541684105636,0.5013698630136987,0.05094802834447737,0.20229243229997274,0.3989071038251366,1.58707858633115,0.07178498711886447,0.48132780082987553,0.33972602739726027,0.12458838526143634,0.24193548387096775,0.178,0.11,0.068
Manny Diaz,2026,Duke,ACC,0,4,0,0,0,32.825,9.425,5.625,5.4,45.95,33.35,5.25,NA,NA,7.8,10.2,32.4,22.4,108,66,891,9,168,974,10,1865,280,2.1065830721003134,1.8775235531628534,70,47,0.294948176306143,82.58548936572004,4.67741935483871,0.44642857142857145,1.3269095790530947,0.75,3.322619047619048,1.4226190476190477,1.5178571428571428,67.9,1.582,7975,0.6,0.6266666666666667,0.234082856608424,39.325919910215234,0.4226190476190476,1.1438264462959995,0.375,-0.03540094147148709,0.37333333333333335,0.4270106353324205,44.836116709904154,0.47619047619047616,1.6591081950284305,0.257592702685106,0.49238578680203043,0.29642857142857143,0.3836111679127007,0.3373493975903614,0.089,0.043,0.046,235,46,-0.06413435416773869,-15.07157322941859,2.588235294117647,0.35319148936170214,1.0706329307840854,0.7,2.6232323232323234,0.5151515151515151,0.5656565656565656,73.7,-1.122,0.42127659574468085,-0.20465460548545716,-20.26080594306026,0.32323232323232326,0.43885243228276183,0.5574468085106383,0.03869973538824212,0.027139613072510834,0.37404580152671757,1.4546375394714433,-0.014389777629913928,0.4444444444444444,0.34893617021276596,-0.15695045429319218,0.18292682926829268,0.183,0.106,0.077
Blake Harrell,2026,East Carolina,American Athletic,0,4,0,0,0,35.9,9.8,8.1,5.65,23.35,12.075,6.4750000000000005,NA,NA,-8.3,-2.8,23.4,26.2,115,69,834,7,126,510,3,1344,242,2.488858416181008,2.052313883299799,60.5,51,0.05628616909617197,13.621252921273616,3.238095238095238,0.40082644628099173,1.1660351080207183,0.7272727272727273,2.430769230769231,0.8803418803418803,1.6752136752136753,73.4,1.13,5834,0.4834710743801653,0.6216216216216216,-0.06748373324702334,-7.895596789901731,0.36752136752136755,0.8360195189520933,0.48760330578512395,0.0067821015146072305,0.3783783783783784,0.2096340120686927,24.73681342410574,0.423728813559322,1.4971528376146217,0.1715312508925651,0.49101796407185627,0.30991735537190085,-0.2003262130371301,0.2,0.182,0.116,0.066,288,53,-0.017745757539749944,-5.110778171447984,2.8461538461538463,0.3541666666666667,1.3129262260057688,0.5833333333333334,2.2515151515151515,1.0121212121212122,0.7515151515151515,71,-1.29,0.5729166666666666,0.02446343431280335,4.036466661612552,0.3696969696969697,1.1834361905408488,0.4027777777777778,-0.06378777387830037,-0.0016012782278354357,0.3448275862068966,1.539866566632436,-0.1440664669831264,0.37142857142857144,0.3923611111111111,0.17788365973981535,0.3274336283185841,0.194,0.16,0.035
Chris Creighton,2026,Eastern Michigan,Mid-American,0,6,0,0,0,32.733333333333334,9.9,9.133333333333333,6.883333333333333,24,9.55,6.8999999999999995,NA,NA,-11.9,-18,15,32.7,205,129,1201,8,181,670,8,1871,397,2.1342173640354805,2.1021296084268375,66.16666666666667,65,0.047622989128286934,18.906326683929912,3.735294117647059,0.4005037783375315,1.1468021069975862,0.7428571428571429,3.003409090909091,1.0568181818181819,0.7840909090909091,74.8,1.041,11161,0.4433249370277078,0.4596774193548387,0.08660609006988212,15.242671852299253,0.42045454545454547,0.966471483050582,0.5188916876574308,0.06506614746952738,0.5403225806451613,0.13093738966285257,26.973102270547628,0.3932038834951456,1.3263541181152354,0.037623521734647496,0.45588235294117646,0.3148614609571788,0.06938183017684635,0.28,0.156,0.091,0.065,384,64,0.10405361291592363,39.956587359714675,3.324324324324324,0.421875,1.2203536072643906,0.7407407407407407,2.971111111111111,1.0222222222222221,0.85,69.6,-1.41,0.46875,0.03146671202106067,5.664008163790919,0.40555555555555556,0.95858249130914,0.5104166666666666,0.0558520852131133,0.2124859060109677,0.4489795918367347,1.4501213412365355,0.02270410702781527,0.4844961240310077,0.328125,0.2706264106868122,0.29365079365079366,0.176,0.09,0.086
Jon Sumrall,2026,Florida,SEC,0,5,0,0,0,43.34,14.560000000000002,11.540000000000001,6.780000000000001,43.120000000000005,27.160000000000004,11.52,NA,NA,16.9,18.5,38.8,20.8,143,102,1374,10,202,1082,18,2456,350,2.12636695018226,2.162629757785467,70,57,0.3395795597998296,118.85284592994037,5.352941176470588,0.4857142857142857,1.2939867665656408,0.8620689655172413,3.04,1.0615384615384615,1.882051282051282,68.9,1.52,9876,0.5571428571428572,0.5656565656565656,0.2442142403662979,47.62177687142809,0.4564102564102564,1.0888513669166742,0.4228571428571429,0.019163089360348717,0.43434343434343436,0.5190993737601669,76.8267073165047,0.5337837837837838,1.5462697064695534,0.33122919999012623,0.5551181102362205,0.2742857142857143,0.3616732201296699,0.3020833333333333,0.114,0.074,0.04,357,62,0.046482641117666264,16.594302879006854,4.103448275862069,0.41456582633053224,1.235758542465533,0.7619047619047619,2.803448275862069,0.8137931034482758,1.2551724137931033,73.5,-1.077,0.4061624649859944,0.0028197924851077506,0.40886991034062387,0.3724137931034483,1.055724510741526,0.5574229691876751,0.07077517604382433,0.21442933601621175,0.457286432160804,1.3665612396155578,-0.004167049702829959,0.45849802371541504,0.2913165266106443,0.16969775436368112,0.3076923076923077,0.193,0.112,0.081
Zach Kittley,2026,Florida Atlantic,American Athletic,0,5,0,0,0,63.46,24.240000000000002,18.360000000000003,13.940000000000001,24.240000000000002,10.16,7.040000000000001,NA,NA,-5,-4.2,27.2,31.7,194,135,1520,12,182,582,8,2102,384,2.8025787617078213,2.603607996099464,76.8,56,0.17747308455048416,68.14966446738592,4.40625,0.4479166666666667,1.2051373036578137,0.7714285714285715,2.893063583815029,0.7341040462427746,0.5317919075144508,69.5,1.473,8221,0.4505208333333333,0.27941176470588236,0.10362739359287769,17.92753909156784,0.3988439306358382,1.0179807219570451,0.5208333333333334,0.11155635999870206,0.7205882352941176,0.2558619448474969,51.17238896949938,0.495,1.3489131783379984,0.06574180863117975,0.47653429602888087,0.2786458333333333,0.46672134090232825,0.37383177570093457,0.148,0.083,0.065,331,60,0.1837780427180047,60.83053213965956,4.12,0.3957703927492447,1.46477869497932,0.7619047619047619,2.765895953757225,0.9595375722543352,1.5953757225433527,73.9,-1.121,0.5226586102719033,0.14632074359069813,25.31348864119078,0.3815028901734104,1.1787156728943602,0.459214501510574,-0.03457982043425245,0.2673259445113102,0.42105263157894735,1.7384551550421365,0.20494192810707268,0.45089285714285715,0.32326283987915405,0.1394723387259372,0.2803738317757009,0.157,0.094,0.063
Willie Simmons,2026,Florida International,Conference USA,0,4,0,0,0,48.575,20.3,9.125,7.625,11.525,6.65,2.4250000000000003,NA,NA,-15,-7.6,17.9,25.4,151,87,1176,6,138,496,2,1672,294,2.1858736059479553,2.1375464684014873,73.5,43,0.009160633238520852,2.6932261721251303,2.5,0.391156462585034,1.2069907538933642,0.7894736842105263,2.8263157894736843,0.8646616541353384,0.3082706766917293,71.3,1.351,8070,0.4523809523809524,0.4318181818181818,-0.07868830054229561,-10.465543972125316,0.3458646616541353,0.6001577925161052,0.5204081632653061,0.03913835196160814,0.5681818181818182,0.12291467973450634,18.80594599937947,0.4444444444444444,1.5936328460798472,-0.03622830691361538,0.44148936170212766,0.36054421768707484,0.0896617723762719,0.3018867924528302,0.153,0.075,0.078,249,41,-0.003786046049119338,-0.9427254662307151,2.761904761904762,0.3373493975903614,1.1588398912972853,0.6666666666666666,2.23109243697479,0.7563025210084033,0.24369747899159663,68.2,-1.543,0.4779116465863454,-0.05787938507310011,-6.887646823698913,0.3025210084033613,0.8956158643739676,0.4979919678714859,0.03195331014770386,0.04778446156223633,0.3629032258064516,1.360902376295488,-0.02373386553349123,0.4025974025974026,0.3815261044176707,0.028550419220283518,0.23157894736842105,0.177,0.12,0.056
Mike Norvell,2026,Florida State,ACC,0,5,0,0,0,28.72,10.36,8.940000000000001,8.42,33.58,18.020000000000003,9.9,NA,NA,8.8,5.7,32.1,26.5,118,72,1125,6,193,970,15,2095,315,2.1827000808407435,2.0422163588390503,63,56,0.26420271427961606,83.22385499807906,4.9375,0.44761904761904764,1.43816619411799,0.625,3.408888888888889,1.2166666666666668,1.6555555555555557,72.4,1.235,8659,0.5714285714285714,0.6761904761904762,0.2886449355577691,51.956088400398436,0.4666666666666667,1.1131892958948075,0.4,-0.04656781096972762,0.3238095238095238,0.3433521895939366,43.26237588883601,0.42857142857142855,1.9278899320999374,0.10931083230806124,0.4780701754385965,0.2761904761904762,0.6701262670326563,0.367816091954023,0.14,0.079,0.06,349,55,0.11286304651208463,39.38920323271754,3,0.4040114613180516,1.2817364285016135,0.8333333333333334,2.972611464968153,0.9554140127388535,0.9044585987261147,73.3,-1.131,0.4498567335243553,0.0579956296971538,9.105313862453146,0.4012738853503185,0.8914077007941704,0.5272206303724928,0.06290371560687513,0.18278914968916207,0.4076086956521739,1.6117636565965225,0.08221224943223676,0.4798206278026906,0.36103151862464183,0.1671100921375297,0.2698412698412698,0.172,0.115,0.057
Matt Entz,2026,Fresno State,Pac-12,0,5,0,0,0,36.78,15.38,9.680000000000001,6.3,27.880000000000003,11.96,9.879999999999999,NA,NA,0.5,-0.3,23.6,24,141,94,1067,6,170,779,9,1846,317,2.0473627556512377,2.0615796519410976,63.4,62,0.10743725206232169,34.05760890375598,3.65625,0.3785488958990536,1.3274177590344092,0.47058823529411764,2.508641975308642,0.9259259259259259,1.6975308641975309,65.8,1.686,9290,0.5110410094637224,0.5462184873949579,-0.022626583003529398,-3.665506446571763,0.3333333333333333,1.0957958052205314,0.45425867507886436,0.03364423063151495,0.453781512605042,0.36049754211633966,51.91164606475291,0.4583333333333333,1.5169266303366726,0.028872198125902252,0.410958904109589,0.30914826498422715,0.2830060970835039,0.30612244897959184,0.132,0.11,0.022,331,60,-0.0714219849208217,-23.640677008791982,2.909090909090909,0.40483383685800606,1.1152939919395106,0.6363636363636364,2.884662576687117,1.0061349693251533,1.2760736196319018,77.7,-0.87,0.49244712990936557,-0.05406357804506682,-8.812363221345892,0.4171779141104294,0.8141873753446538,0.48036253776435045,-0.02552320528196994,-0.01448446621242246,0.4088050314465409,1.4497215250721966,-0.022658988663193148,0.4780701754385965,0.311178247734139,-0.17936337469498975,0.24271844660194175,0.16,0.103,0.057
Kirby Smart,2026,Georgia,SEC,0,5,0,0,0,39.68,10.14,6.659999999999999,6.0600000000000005,40.38,15.12,10.52,NA,NA,20.5,30.2,41.6,11.8,138,98,1329,16,164,1065,16,2394,311,2.0682775437818663,1.7914438502673797,62.2,62,0.43563847438019077,135.48356553223934,5.742857142857143,0.5434083601286174,1.265978648377438,0.8333333333333334,3.5955974842767295,1.3270440251572326,2.389937106918239,66.2,1.655,9022,0.5112540192926045,0.5862068965517241,0.29750287353241045,47.30295689165326,0.5220125786163522,0.9878459185426836,0.45337620578778137,0.10904301652176812,0.41379310344827586,0.6010420489444257,84.74692890116403,0.5673758865248227,1.5325856524350538,0.438711412297584,0.6008403361344538,0.2347266881028939,0.4256198548686897,0.3561643835616438,0.103,0.061,0.042,316,62,-0.09595725576085787,-30.322492820431087,2.8947368421052633,0.3322784810126582,1.1855324986260802,0.6153846153846154,2.1884892086330936,0.5179856115107914,0.7338129496402878,72.2,-1.155,0.439873417721519,-0.35004563087068413,-48.656342691025095,0.2805755395683453,0.5779811296096262,0.5443037974683544,0.041182901606379274,0.1014082409004336,0.37209302325581395,1.5644127768352896,-0.17851953900554635,0.41968911917098445,0.38924050632911394,0.03359169274503543,0.1951219512195122,0.187,0.123,0.063
Clay Helton,2026,Georgia Southern,Sun Belt,0,5,0,0,0,42.980000000000004,11.66,9.580000000000002,8.84,19.6,7.92,4.26,NA,NA,-4.3,-8.6,23,31.4,198,129,1312,8,139,598,8,1910,344,2.1698906644238853,2.000565131393049,68.8,59,0.12762930909269696,43.904482327887756,3.793103448275862,0.42151162790697677,1.1994950612670616,0.7142857142857143,2.9955555555555557,1.0074074074074073,1.2296296296296296,73.6,1.149,9512,0.39244186046511625,0.3979591836734694,0.041238290394516514,5.56716920325973,0.4222222222222222,0.8836002954137043,0.5901162790697675,0.12479712031892543,0.6020408163265306,0.22337113134013267,45.344339662046934,0.4236453201970443,1.415945652329154,0.08970928795359083,0.46530612244897956,0.2877906976744186,0.22147178564907072,0.31313131313131315,0.169,0.096,0.073,322,57,0.08016587533105617,25.813411856600084,3.6206896551724137,0.38198757763975155,1.1040599333990364,0.6842105263157895,2.833125,1.04375,0.7,70.2,-1.378,0.4968944099378882,0.01152310756299125,1.8436972100786,0.40625,0.6964190215070569,0.4658385093167702,0.00782829047407052,0.23044617356916666,0.37333333333333335,1.564280089913965,0.1078820174184248,0.4351851851851852,0.32919254658385094,0.023687699002078556,0.27358490566037735,0.18,0.124,0.056
Dell McGee,2026,Georgia State,Sun Belt,0,5,0,0,0,44.260000000000005,16.32,7,6.780000000000001,38.3,11.760000000000002,9.34,NA,NA,5.9,-11.2,24.6,35.6,151,101,1295,13,199,1048,11,2343,357,2.160580996570506,1.9971056439942112,71.4,63,0.23679524083731357,84.53590097892094,4.6,0.47058823529411764,1.2868309319416285,0.65,3.268020304568528,1.1928934010152283,1.4314720812182742,69.7,1.427,9914,0.5518207282913166,0.5494505494505495,0.11638016437904922,22.926892382672694,0.4365482233502538,0.881359029259918,0.4173669467787115,-0.00708145592952153,0.45054945054945056,0.4924077092753773,73.36874868203121,0.5167785234899329,1.7311701498710423,0.10837920995033973,0.49242424242424243,0.2605042016806723,0.601331070451949,0.40860215053763443,0.109,0.059,0.05,306,59,-0.04754557124723901,-14.548944801655137,2.740740740740741,0.35294117647058826,1.1976256827600864,1,2.7560283687943263,1.2765957446808511,1.4680851063829787,70.8,-1.326,0.46078431372549017,0.05182947638504431,7.307956170291247,0.3829787234042553,0.9914835416439153,0.5163398692810458,0.012005159882978789,-0.09914467959870225,0.3291139240506329,1.4223086213994485,-0.10250575000952253,0.4263157894736842,0.3790849673202614,0.042475411208225365,0.23275862068965517,0.203,0.137,0.065
Brent Key,2026,Georgia Tech,ACC,0,4,0,0,0,28.95,10.025,9.325,5,32.650000000000006,20.750000000000004,8.675,NA,NA,-6.4,-0.1,26.6,26.9,125,84,975,6,133,505,5,1480,260,2.276043186460461,2.1039209435766657,65,42,0.14134452188810442,36.74957569090715,3.392857142857143,0.4423076923076923,1.2208778751676495,0.7058823529411765,3.074193548387097,1.1129032258064515,1.153225806451613,70.6,1.372,6854,0.47692307692307695,0.4782608695652174,0.11204633594454214,13.893745657123226,0.45161290322580644,0.8847804781016037,0.5038461538461538,0.023369971487452013,0.5217391304347826,0.19113473065261466,25.03864971549252,0.44274809160305345,1.5128979747352675,0.09615699896925786,0.5,0.3076923076923077,0.24301644845550918,0.3125,0.162,0.104,0.058,281,44,0.1552695286200172,43.630737542224836,3.6538461538461537,0.4128113879003559,1.2672318275370569,0.6842105263157895,2.906470588235294,0.9647058823529412,0.8176470588235294,70.4,-1.318,0.604982206405694,0.0824167948768314,14.010855129061339,0.4470588235294118,0.8649528807425144,0.3594306049822064,-0.0870076879788349,0.34294132348598705,0.36633663366336633,2.0888731316703253,0.04864898099780595,0.4473684210526316,0.3238434163701068,0.3778838588202385,0.34065934065934067,0.16,0.121,0.039
Timmy Chang,2026,Hawai'i,Mountain West,0,5,0,0,0,45.06,11.74,9.38,5.9399999999999995,21.48,14,4.46,NA,NA,-20.8,-12.2,19.8,32.2,223,133,1372,5,129,430,4,1802,362,2.391543712838582,1.6883348174532502,72.4,57,0.03656794262500406,13.23759523025147,2.814814814814815,0.38950276243093923,1.1419161557005864,0.7647058823529411,3.16,1.225,1.3083333333333333,74.1,1.092,9082,0.3314917127071823,0.3969465648854962,-0.03712010925149583,-4.454413110179499,0.44166666666666665,0.8107839987921155,0.6408839779005525,0.15066164612918242,0.6030534351145038,0.12650567718956907,29.349317107980024,0.375,1.341583580485321,0.03551573194734605,0.45217391304347826,0.36464088397790057,0.03840134001789302,0.2803030303030303,0.169,0.105,0.064,331,56,0.20252387017107337,67.03540102662528,3.6785714285714284,0.4471299093655589,1.1941015317991748,0.75,3.2519774011299436,1.1242937853107344,1.033898305084746,74,-1.142,0.5347432024169184,0.18693639249641486,33.08774147186543,0.4463276836158192,0.9568936026214986,0.4380664652567976,0.0043178214310850005,0.19366769325621133,0.4482758620689655,1.4361957026491516,0.12054059089688071,0.510548523206751,0.283987915407855,0.4092263934474953,0.2872340425531915,0.133,0.082,0.051
Willie Fritz,2026,Houston,Big 12,0,5,0,0,0,35.940000000000005,16.8,10.680000000000001,7.959999999999999,33.36,12.8,10.98,NA,NA,16.2,12.1,36.3,24.2,143,97,1268,13,208,1148,14,2416,358,2.1716712162572036,2.1678926871484205,71.6,54,0.34508764798193314,123.54137797753206,4.65,0.5614525139664804,1.0493213576761087,0.8205128205128205,3.7009756097560977,1.3073170731707318,1.1268292682926828,64.2,1.834,9891,0.5726256983240223,0.5522388059701493,0.24135010520481567,49.47677156698721,0.5560975609756098,0.7308080882370962,0.40782122905027934,9.50850364898892e-4,0.44776119402985076,0.4976883029185482,72.66249222610804,0.5753424657534246,1.4936511029660124,0.2704049917688038,0.5759717314487632,0.20949720670391062,0.626890204092808,0.5066666666666667,0.098,0.053,0.045,307,56,0.09389749142056716,28.82652986611412,4.947368421052632,0.3745928338762215,1.4241213276147087,0.5882352941176471,2.3213675213675216,0.6153846153846154,0.717948717948718,76.6,-0.917,0.3811074918566775,-0.058200980983794504,-6.809514775103957,0.3418803418803419,0.8860398814736159,0.5863192182410424,0.09442686957481783,0.23302344579760315,0.40555555555555556,1.7077113839285898,1.3446183952340611e-4,0.417910447761194,0.34527687296416937,0.2716934248714143,0.29245283018867924,0.212,0.104,0.107
Bret Bielema,2026,Illinois,Big Ten,0,5,0,0,0,53.32000000000001,28.82,10.180000000000001,8.98,21.7,8.82,7.220000000000001,NA,NA,1.7,8.5,34.3,26.2,157,102,1246,11,146,778,6,2024,312,2.2746051032806807,1.7843866171003717,62.4,47,0.24208224324437366,75.52965989224458,3.8181818181818183,0.4967948717948718,1.2978250849853328,0.7058823529411765,3.4571428571428573,1.1928571428571428,1.5357142857142858,71.5,1.295,8230,0.44871794871794873,0.5148514851485149,0.2312012523468455,32.368175328558365,0.4928571428571429,0.9987094530638335,0.5192307692307693,0.027806853566098133,0.48514851485148514,0.29233335922055137,47.35800419372932,0.5123456790123457,1.5269607809097758,0.12734552705841812,0.5357142857142857,0.28205128205128205,0.5341393389904424,0.3977272727272727,0.115,0.048,0.067,336,48,0.21266469420471257,71.45533725278342,3.7241379310344827,0.44642857142857145,1.2695353038281467,0.75,2.6144508670520232,0.9421965317919075,0.4624277456647399,72,-1.266,0.5148809523809523,0.10216977030175262,17.675370262203202,0.4046242774566474,1.0297726191885275,0.47023809523809523,-0.01776388931649786,0.3249454702917476,0.5,1.4529571953449416,0.18484743616406643,0.49377593360995853,0.28273809523809523,0.28323268565519383,0.3263157894736842,0.128,0.065,0.063
Curt Cignetti,2026,Indiana,Big Ten,0,5,0,0,0,56.86,24.54,16.22,8.32,36.88,19.28,15.680000000000001,NA,NA,18.3,26.9,40.3,13.7,115,81,1185,17,196,1263,11,2448,316,1.988672120830711,1.891691394658754,63.2,54,0.4446190066767257,140.49960610984533,5.2631578947368425,0.5189873417721519,1.3713292715915317,0.7241379310344828,3.5957894736842104,1.4052631578947368,2.3947368421052633,67.6,1.614,9534,0.6012658227848101,0.4925373134328358,0.2907693317484309,55.24617303220187,0.4842105263157895,1.0540069407608985,0.37658227848101267,-0.004345273526926208,0.5074626865671642,0.6694543979992573,79.66507336191162,0.5714285714285714,1.7854282910546226,0.4043789881731863,0.5630252100840336,0.2468354430379747,0.5674026528798332,0.38461538461538464,0.101,0.076,0.025,294,55,-0.09191655569146918,-27.023467373291943,3.1333333333333333,0.29591836734693877,1.4672212893523198,0.42105263157894735,2.1609929078014183,0.7092198581560284,0.6312056737588653,75,-0.99,0.47959183673469385,-0.15924765155234671,-22.453918868880887,0.2624113475177305,1.1103185444069068,0.48299319727891155,-0.050051529832342845,0.014720712656773095,0.352112676056338,1.7313293206119253,-0.23606115858209448,0.32967032967032966,0.38095238095238093,0.14231842400579692,0.24107142857142858,0.194,0.163,0.031
Kirk Ferentz,2026,Iowa,Big Ten,0,5,0,0,0,26.32,12.84,8.559999999999999,2.2600000000000002,36.339999999999996,10.879999999999999,9.5,NA,NA,10.7,14.8,29,14.5,160,98,1053,6,153,901,10,1954,317,2.21239967430499,2.2093023255813953,63.4,57,0.12795833470760848,40.56279210231189,3.7333333333333334,0.42586750788643535,1.2496216027265061,0.5789473684210527,3.263758389261745,1.2818791946308725,2.0738255033557045,69.4,1.514,8597,0.47003154574132494,0.49074074074074076,0.16523463424275184,24.61996050217002,0.4161073825503356,1.2773897398477412,0.5078864353312302,0.04520197986318658,0.5092592592592593,0.1891358228412784,30.45086747744582,0.453416149068323,1.226037705445457,0.15283792816920205,0.5022421524663677,0.29652996845425866,0.06893546936787054,0.24468085106382978,0.11,0.054,0.057,317,60,-0.06356294591887149,-20.149453856282264,2.7777777777777777,0.3438485804416404,1.093350764369813,0.7647058823529411,2.7006134969325153,0.5705521472392638,0.2883435582822086,75.5,-1.017,0.5141955835962145,-0.1904917588246341,-31.050156688415356,0.3619631901840491,0.4799673123600682,0.4479495268138801,-0.03373719603720915,0.19362053950600197,0.34507042253521125,1.846334308258858,-0.1697661473010857,0.4068627450980392,0.35646687697160884,0.12816672737291346,0.23008849557522124,0.167,0.088,0.079
Jimmy Rogers,2026,Iowa State,Big 12,0,5,0,0,0,30.52,8.24,7.44,7.0200000000000005,31.9,21.6,4.16,NA,NA,6.4,3.4,24.5,21.4,123,73,971,8,191,987,11,1958,319,2.039424613745338,2.0364741641337387,63.8,60,0.17086678384556256,54.506504046734456,4.9,0.4106583072100313,1.3242277382918588,0.631578947368421,3.023529411764706,1.1283422459893049,1.6737967914438503,72,1.317,9385,0.5862068965517241,0.6486486486486487,0.14169462243291397,26.49689439495491,0.39572192513368987,1.2049675462786436,0.38557993730407525,-0.07718917331213404,0.35135135135135137,0.27132768676088614,33.373305471589,0.45528455284552843,1.500598245350336,0.10507150863993445,0.44594594594594594,0.30407523510971785,0.3214497848316393,0.32989690721649484,0.154,0.082,0.072,307,63,0.04634553454396122,14.228079104996095,2.888888888888889,0.38762214983713356,1.237662222615276,0.6666666666666666,2.8461988304093566,1,1.4736842105263157,69.7,-1.418,0.5570032573289903,0.021523556059324694,3.6805280861445224,0.4093567251461988,1.0299528232379955,0.4169381107491857,-0.02439327072751879,0.12406359159087757,0.3515625,1.6336181196330593,0.07382636564921312,0.4714285714285714,0.31596091205211724,-0.013149048261223295,0.20618556701030927,0.176,0.127,0.049
Charles Kelly,2026,Jacksonville State,Conference USA,0,5,0,0,0,34.36,12.74,9.72,6.0200000000000005,18.759999999999998,7.32,7.040000000000001,NA,NA,-8.5,-2.2,26.4,28.4,130,91,1158,9,172,804,6,1962,308,2.2797927461139897,1.9885900570497148,61.6,48,0.2039256783625617,62.809108935669,3.2857142857142856,0.4805194805194805,1.1919700680154681,0.8148148148148148,3.1224242424242425,1.2,1.0363636363636364,75.3,1.004,8106,0.5357142857142857,0.494949494949495,0.10683613580353334,17.627962407583002,0.4727272727272727,0.9350646727972503,0.43506493506493504,0.0031266730071070614,0.5050505050505051,0.3828830331569897,51.30632644303662,0.5074626865671642,1.4998761084871537,0.1946999637347621,0.5236051502145923,0.2435064935064935,0.23258689847292582,0.3466666666666667,0.132,0.084,0.048,324,47,0.038705259371239004,12.540504036281437,3.5,0.4228395061728395,1.0462276584798134,0.84,2.9149732620320856,0.9411764705882353,1.0427807486631016,74,-1.134,0.5771604938271605,0.08745331470865991,16.353769850519402,0.43315508021390375,0.8708617193946713,0.4012345679012346,-0.05432842263522053,0.04260032960257877,0.4076923076923077,1.3398702529637647,0.015186473058411995,0.49361702127659574,0.27469135802469136,0.10080542547814178,0.23595505617977527,0.155,0.1,0.055
Billy Napier,2026,James Madison,Sun Belt,0,5,0,0,0,42.36,14.780000000000001,6.140000000000001,5.86,34.6,18.16,10.680000000000001,NA,NA,7.7,9.9,29.4,19.5,146,96,1168,13,185,1106,12,2274,335,2.448532098915824,2.5136612021857925,67,61,0.3271741244075479,109.60333167652854,4.657894736842105,0.48955223880597015,1.224186777978688,0.72,3.3820224719101124,1.2134831460674158,2.2808988764044944,66.8,1.637,8209,0.5313432835820896,0.5901639344262295,0.25858860481608226,46.02877165726264,0.5056179775280899,0.9801265505248578,0.4507462686567164,0.03987212719207783,0.4098360655737705,0.42373369895275104,63.98378854186541,0.4768211920529801,1.54682865948694,0.20797529792943592,0.5368852459016393,0.2716417910447761,0.6467841646345733,0.3626373626373626,0.101,0.066,0.036,369,66,-0.09527398619431632,-35.15610090570272,2.5517241379310347,0.3224932249322493,1.287012172817662,0.75,2.610240963855422,0.7409638554216867,0.3614457831325301,72.7,-1.17,0.44986449864498645,-0.08521696738985891,-14.14601658671658,0.3072289156626506,0.950172667505451,0.5149051490514905,0.004068849176477873,-0.030258556784511944,0.32105263157894737,1.5763292834292477,-0.2166740116218971,0.3640552995391705,0.41192411924119243,0.07804052379111151,0.2631578947368421,0.168,0.106,0.062
Lance Leipold,2026,Kansas,Big 12,0,4,0,0,0,42.675000000000004,12.9,8.675,7.050000000000001,31.625,16.375,6.675,NA,NA,-0.5,1,26.4,25.8,114,65,971,6,186,1017,11,1988,305,2.3111896943672643,2.124384236453202,76.25,49,0.29522931846073586,90.04494213052443,3.8529411764705883,0.5016393442622951,1.3175015450606857,0.6666666666666666,3.7368715083798882,1.3743016759776536,1.089385474860335,72.8,1.195,7918,0.5868852459016394,0.6470588235294118,0.29172829486098,52.21936478011542,0.5418994413407822,1.0245325117585276,0.3836065573770492,-0.08352868875204505,0.35294117647058826,0.26560292286682696,31.075541975418755,0.4188034188034188,1.8751372156588089,0.24941368917116893,0.5734597156398105,0.3081967213114754,0.39807078420646586,0.3404255319148936,0.141,0.082,0.059,238,51,-0.14047589281545378,-33.433262490078,2.9565217391304346,0.2815126050420168,1.2771864784234672,0.75,2.063779527559055,0.5905511811023622,0.8976377952755905,67.4,-1.485,0.5336134453781513,-0.21207582196247307,-26.93362938923408,0.25984251968503935,0.8519806957809903,0.4369747899159664,-0.01398092991539407,0.10593062942405528,0.3173076923076923,1.7020629977968902,-0.1011791847334815,0.3475177304964539,0.40756302521008403,-0.19759791177997021,0.18556701030927836,0.223,0.151,0.071
Collin Klein,2026,Kansas State,Big 12,0,4,0,0,0,36.775,10.225,9.7,8.2,37.85,14.625000000000002,13.625000000000002,NA,NA,6.4,14,35,21.2,139,93,958,7,151,963,13,1921,296,2.192051345346828,1.9834710743801653,74,45,0.3066555233089882,90.77003489946051,4.962962962962963,0.5135135135135135,1.2147288981652262,0.7619047619047619,3.398,1.34,2.2866666666666666,70.1,1.379,8102,0.5067567567567568,0.48,0.3199979762248998,47.99969643373497,0.56,1.0155327170266144,0.46621621621621623,0.036697942171789066,0.52,0.30529550025694246,42.130779035458055,0.47101449275362317,1.4835693402659451,0.1780655389679973,0.5485436893203883,0.30405405405405406,0.6009837096894786,0.43333333333333335,0.084,0.057,0.027,223,45,-0.03939382867070738,-8.784823793567744,3.857142857142857,0.30493273542600896,1.4953268179868437,0.4166666666666667,2.5108527131782945,1.3488372093023255,1.4341085271317828,74.1,-1.124,0.57847533632287,0.07056166185459041,9.102454379242163,0.34108527131782945,1.443321095458422,0.3991031390134529,-0.09086665000980065,-0.11924019562465724,0.25842696629213485,1.6425108234143466,-0.17950578428598915,0.3333333333333333,0.42152466367713004,0.15288747212047718,0.26595744680851063,0.238,0.193,0.045
Jerry Mack,2026,Kennesaw State,Conference USA,0,4,0,0,0,34.425000000000004,8.65,7.1000000000000005,6.5,25.775,12.3,7.949999999999999,NA,NA,-7.1,-11.7,20.1,31.3,127,87,789,2,136,668,9,1457,272,2.3734729493891797,2.0747217806041336,68,45,0.09684077719214801,26.34069139626426,4.166666666666667,0.45955882352941174,1.0511684298734412,0.8181818181818182,3.3136363636363635,1.303030303030303,1.1136363636363635,73.2,1.178,6876,0.4852941176470588,0.6086956521739131,0.15727996123454283,20.760954882959652,0.5,1.0060733290130603,0.47794117647058826,0.01508879027832516,0.391304347826087,0.10326052204578931,13.42386786595261,0.43846153846153846,1.1275332664838247,0.11415451233889617,0.5343915343915344,0.30514705882352944,0.05741552487003473,0.2891566265060241,0.14,0.085,0.055,251,44,0.15108840921895164,37.92319071395686,3.8260869565217392,0.4262948207171315,1.089390254669204,0.8571428571428571,3.1602836879432625,1.24822695035461,0.8439716312056738,71,-1.401,0.5617529880478087,0.07847760417926905,11.065342189276935,0.40425531914893614,0.9005122889976072,0.42231075697211157,-0.004867073647754683,0.26435954713336945,0.46226415094339623,1.2843174794601588,0.06896453045127082,0.48554913294797686,0.3107569721115538,0.3332349608447052,0.2948717948717949,0.108,0.076,0.032
Mark Carney,2026,Kent State,Mid-American,0,5,0,0,0,23.419999999999998,10.06,7.459999999999999,4.74,15.1,6.180000000000001,5.220000000000001,NA,NA,-10.6,-22.4,13.4,35.4,132,75,801,3,177,580,5,1381,314,1.977537524929149,1.6419077404222049,62.8,55,-0.0365380161160959,-11.472937060454115,2.5,0.3343949044585987,1.2671318962969498,0.55,2.701197604790419,0.8263473053892215,0.6107784431137725,73.5,1.189,9527,0.5318471337579618,0.5420560747663551,-0.06545684556735383,-10.93129320974809,0.33532934131736525,0.9407313837326964,0.4267515923566879,-0.022925193323508675,0.45794392523364486,0.12314935722622969,16.50201386831478,0.34328358208955223,1.664095260937046,-0.17357214518725633,0.3877551020408163,0.37579617834394907,0.19107799488345872,0.2457627118644068,0.169,0.086,0.083,304,57,0.14703400968854735,44.69833894531839,4.620689655172414,0.47368421052631576,1.1654506890287342,0.7692307692307693,3.169753086419753,1.1419753086419753,0.9506172839506173,69.4,-1.473,0.5328947368421053,0.06546393796332449,10.605157950058567,0.4444444444444444,0.7871641681229542,0.4407894736842105,-0.0012378285135157818,0.27905453152262943,0.5074626865671642,1.5331394212553942,0.17730888232430775,0.5475113122171946,0.2730263157894737,0.06642260182706486,0.27710843373493976,0.145,0.109,0.036
Will Stein,2026,Kentucky,SEC,0,5,0,0,0,30.24,15.219999999999999,5.4,2.9200000000000004,32.64,17.06,11.059999999999999,NA,NA,14.2,8,31.2,23.1,144,97,1148,11,181,936,10,2084,330,2.165591162638084,1.8185900314324204,66,60,0.22484143633521556,74.19767399062113,4.5,0.5121212121212121,1.1461220148425448,0.75,3.404733727810651,1.2603550295857988,1.4970414201183433,69.6,1.407,9143,0.5121212121212121,0.49107142857142855,0.1857706656910765,31.395242501791927,0.5562130177514792,0.8517922481865416,0.46060606060606063,0.02480927518449233,0.5089285714285714,0.2656544244110633,40.37947251048162,0.45394736842105265,1.5452763588322314,0.21349170751190832,0.5748031496062992,0.23030303030303031,0.26277342477100546,0.3026315789473684,0.136,0.091,0.045,367,58,0.030200984886286936,11.083761453267305,3.75,0.4332425068119891,1.159961023534726,0.7391304347826086,2.943396226415094,0.9433962264150944,1.0440251572327044,69.7,-1.389,0.4332425068119891,0.10506072618295802,16.704655463090326,0.44654088050314467,1.0059683448806185,0.5340599455040872,0.04108605604490323,0.026192405283273684,0.4336734693877551,1.299171200212412,-0.08258182261421564,0.4609375,0.3024523160762943,0.2903126850676262,0.36936936936936937,0.18,0.087,0.093
Lane Kiffin,2026,LSU,SEC,0,5,0,0,0,52.67999999999999,14.540000000000001,11.74,7.859999999999999,29.419999999999998,17.7,6.32,NA,NA,23,21.3,34.7,13.4,180,113,1550,9,236,1189,19,2739,420,2.498760535448686,2.6908396946564888,84,64,0.28097857715094726,118.01100240339785,4.4186046511627906,0.5023809523809524,1.2435065014509394,0.7297297297297297,3.2026200873362445,1.2314410480349345,1.314410480349345,66,1.678,10085,0.5452380952380952,0.5769230769230769,0.2221113046030794,50.863488754105184,0.4978165938864629,0.939284492062799,0.4357142857142857,0.04282871330358895,0.4230769230769231,0.3772267154074486,69.03248891956311,0.4972677595628415,1.6600193566844332,0.2538894393782805,0.5469255663430421,0.2642857142857143,0.35638887959918175,0.3783783783783784,0.155,0.081,0.074,290,66,-0.16235973673317633,-47.08432365262114,3.857142857142857,0.29310344827586204,1.216171394832916,0.7272727272727273,2.0866141732283463,0.7795275590551181,0.7637795275590551,74,-1.062,0.4379310344827586,-0.12981563498087062,-16.486585642570567,0.30708661417322836,0.861879665231837,0.5344827586206896,0.05653179072751069,-0.18607288459284144,0.2838709677419355,1.5163831670449452,-0.14497611721703485,0.3389830508474576,0.3896551724137931,-0.18958894606376966,0.22123893805309736,0.241,0.155,0.086
Jamey Chadwell,2026,Liberty,Conference USA,0,5,0,0,0,33.94,19.18,7.68,5.18,32.86,14.720000000000002,6.1800000000000015,NA,NA,2.6,2.5,27.4,24.7,115,66,1043,10,215,1041,8,2084,337,1.9868330549277784,1.9306646236353189,67.4,59,0.12547268785434154,42.2842958069131,3.4722222222222223,0.4599406528189911,1.1374117300614055,0.8076923076923077,3.2829268292682925,1.2682926829268293,1.4585365853658536,66.6,1.65,10177,0.6083086053412463,0.6811594202898551,0.07608596494097476,15.597622812899825,0.4878048780487805,0.8050367880448875,0.36795252225519287,-0.07359151260210917,0.3188405797101449,0.25254619745681095,31.31572848464456,0.41935483870967744,1.8001577056837301,0.13124073793198782,0.5062240663900415,0.28486646884273,0.11099247880525041,0.34375,0.148,0.098,0.05,308,57,-0.0022766873366758035,-0.7012196996961475,2.7916666666666665,0.35064935064935066,1.3588518323430672,0.6666666666666666,3.0306122448979593,1.1564625850340136,1.4149659863945578,73.2,-1.179,0.4772727272727273,0.08928172412923269,13.124413446997206,0.38095238095238093,1.0017189801450563,0.4902597402597403,-0.039040623305926725,0.012409775834478685,0.33774834437086093,1.764048529217296,-0.10303975334344578,0.3877551020408163,0.36363636363636365,0.17405867817517165,0.2857142857142857,0.192,0.107,0.084
Michael Desormeaux,2026,Louisiana,Sun Belt,0,5,0,0,0,23.5,6.42,4.26,4.26,25.639999999999997,7.88,6.279999999999999,NA,NA,-4.3,-3,25.1,27.8,119,88,901,2,215,993,16,1894,338,1.9789227166276349,1.6058394160583942,67.6,55,0.16329468108561884,55.19360220693917,3.8,0.4526627218934911,1.1097734056633246,0.8095238095238095,3.2451456310679614,1.2621359223300972,1.2184466019417477,67.5,1.602,10248,0.6094674556213018,0.68,0.16768691764494736,34.54350503485916,0.45145631067961167,1.0237486686141257,0.363905325443787,-0.07503410375949632,0.32,0.2922726610365358,35.949537307493905,0.4715447154471545,1.2604019136166267,0.1351490826212555,0.5021834061135371,0.3224852071005917,0.22242625951074915,0.3486238532110092,0.136,0.107,0.03,297,53,-0.10494057975007327,-31.16735218577176,4.3125,0.4006734006734007,1.0224919838022442,0.4666666666666667,2.7203007518796993,0.8646616541353384,0.47368421052631576,74.1,-1.069,0.4478114478114478,-0.23986300284503442,-31.901779378389577,0.42105263157894735,0.5413087992164953,0.5084175084175084,0.042448252372677575,0.149348649557366,0.4105960264900662,1.4527953076655475,-0.2591154692398859,0.44390243902439025,0.30976430976430974,0.2386012935696178,0.30434782608695654,0.185,0.118,0.067
Sonny Cumbie,2026,Louisiana Tech,Sun Belt,0,4,0,0,0,39.35,19.15,8.8,3.3,25.175000000000004,12.400000000000002,5.025,NA,NA,-0.8,-9.8,21.5,31.3,114,73,921,9,135,612,9,1533,251,2.168154333429312,2.0842824601366745,62.75,51,0.09060547715327524,22.741974765472087,4.111111111111111,0.3705179282868526,1.443268514258173,0.6363636363636364,2.753846153846154,0.9153846153846154,1.6846153846153846,66.8,1.675,6946,0.5179282868525896,0.5510204081632653,0.031177333290747192,4.0530533277971355,0.34615384615384615,1.2480026030977072,0.46215139442231074,-0.039983541242838816,0.4489795918367347,0.20470861022865824,23.746198786524356,0.4051724137931034,1.6702418478208954,0.1411222578850265,0.4107142857142857,0.33067729083665337,-0.011645356135088698,0.2891566265060241,0.163,0.1,0.064,290,52,0.0484579889638856,14.052816799526823,3.6666666666666665,0.3793103448275862,1.3030928192975675,0.7368421052631579,2.302941176470588,0.8764705882352941,1.388235294117647,67.5,-1.587,0.5862068965517241,0.09322296272147859,15.84790366265136,0.37058823529411766,1.1254055879761558,0.38275862068965516,-0.011746128534411537,0.08154394759296217,0.3963963963963964,1.6023798791155346,-0.007879473533240602,0.4444444444444444,0.3482758620689655,0.15388155739910195,0.25742574257425743,0.224,0.155,0.069
Jeff Brohm,2026,Louisville,ACC,0,5,0,0,0,45.22,19.36,15.040000000000001,8.1,30.1,11.46,10.9,NA,NA,4,9.9,35.4,25.7,146,101,1437,10,177,993,15,2430,324,2.2435083669936526,2.082920055544535,64.8,62,0.3260486315572566,105.63975662455114,4.235294117647059,0.49691358024691357,1.37743517803795,0.6363636363636364,2.8656626506024097,1.2590361445783134,2.5903614457831323,70.5,1.36,8665,0.5123456790123457,0.5894039735099338,0.18186357769498715,30.189353897367866,0.4879518072289157,1.1182928162058035,0.47530864197530864,0.011246944422877936,0.4105960264900662,0.46131542924261243,71.04257610336231,0.5064935064935064,1.6110665764909609,0.28482635794437633,0.559322033898305,0.2716049382716049,0.43659927442816265,0.32954545454545453,0.167,0.123,0.043,372,62,0.1425504018159328,53.028749475527,3.444444444444444,0.40053763440860213,1.2798779623064211,0.5757575757575758,2.9442105263157896,0.8736842105263158,0.6421052631578947,71.7,-1.241,0.510752688172043,-0.043978173925511704,-8.355853045847223,0.39473684210526316,0.665701599638519,0.45161290322580644,0.011614673823915622,0.4526779406053536,0.4166666666666667,1.9606359120044248,0.029228770757538842,0.43137254901960786,0.31451612903225806,0.3895334438662786,0.3333333333333333,0.132,0.065,0.067
Tony Gibson,2026,Marshall,Sun Belt,0,5,0,0,0,34.120000000000005,16.98,4.96,4.5600000000000005,22.64,10.42,8.38,NA,NA,-16.4,-12.5,25.2,37.7,168,107,1203,6,174,731,7,1934,350,2.3235229032971896,2.0533227218463987,70,60,0.12849115563797564,44.971904473291474,2.6,0.4342857142857143,1.1834858669155768,0.6666666666666666,3.135928143712575,1.1437125748502994,0.8083832335329342,73.3,1.125,9038,0.47714285714285715,0.5774647887323944,-0.038584959700817455,-6.443688270036515,0.437125748502994,0.8165697310534812,0.48857142857142855,0.00968417281201528,0.4225352112676056,0.32797863957068146,56.08434736658653,0.4269005847953216,1.5662480415698752,0.08016756679141065,0.5042016806722689,0.32,0.23117878193692626,0.2857142857142857,0.16,0.106,0.054,335,54,0.35852669859489944,120.10644402929131,4.379310344827586,0.48656716417910445,1.3011503637511914,0.7368421052631579,3.434375,1.08125,1.9375,71.4,-1.303,0.47761194029850745,0.15592855631927938,24.9485690110847,0.4875,0.8229492407873817,0.5104477611940299,0.03849068366818953,0.5520674912588812,0.4853801169590643,1.7760375996514932,0.2558364662682482,0.5523012552301255,0.2865671641791045,0.6141825894914583,0.3229166666666667,0.113,0.066,0.048
Mike Locksley,2026,Maryland,Big Ten,0,5,0,0,0,49.06,23.02,10.780000000000001,7.7,27.420000000000005,11.42,8.98,NA,NA,-0.6,3.9,28.4,24.7,206,132,1386,8,152,734,11,2120,364,2.5642831983092638,2.723279648609078,72.8,66,0.07255543353442674,26.410177806531333,3.027027027027027,0.4230769230769231,1.282057527887611,0.7142857142857143,2.9567567567567568,1.1689189189189189,1.4121621621621623,69.4,1.461,8517,0.4065934065934066,0.4473684210526316,0.1690670305844055,25.021920526492014,0.42567567567567566,1.101109410812341,0.5769230769230769,0.10933779861632337,0.5526315789473685,0.005357700631993266,1.1251171327185858,0.41904761904761906,1.4316835602596605,0.06173280938679001,0.4860557768924303,0.31043956043956045,0.09659506770307116,0.2831858407079646,0.14,0.085,0.055,322,61,0.07057874019000061,22.726354341180198,4.464285714285714,0.40372670807453415,1.2039554365903475,0.7222222222222222,2.6141975308641974,1.0123456790123457,1.3518518518518519,69.6,-1.401,0.5031055900621118,0.051643948722946795,8.366319693117381,0.3888888888888889,0.9979325650464375,0.468944099378882,0.02000919632797793,0.12927582537438356,0.4370860927152318,1.417236085624634,-0.06224444654343958,0.44660194174757284,0.36024844720496896,0.30645439938904095,0.3275862068965517,0.155,0.109,0.047
Joe Harasymiak,2026,Massachusetts,Mid-American,0,5,0,0,0,29.439999999999998,13.919999999999998,5.4799999999999995,5.040000000000001,20.4,9.780000000000001,8.48,NA,NA,-11.1,-6.2,21.7,27.8,104,76,831,7,164,885,10,1716,272,1.875646477416389,1.9598583234946871,54.4,52,0.2367344362538589,64.39176666104962,3.71875,0.45955882352941174,1.1980788820894672,0.625,3.435625,1.2625,1.3375,66.7,1.627,8701,0.5882352941176471,0.5652173913043478,0.19780235966726037,31.648377546761658,0.46875,0.9453763070497289,0.39705882352941174,-0.030075776941058285,0.43478260869565216,0.3380414247417077,36.50847387210443,0.4537037037037037,1.5917426356666877,0.16243161938120323,0.5051020408163265,0.27941176470588236,0.4283574902938656,0.34210526315789475,0.107,0.07,0.037,344,56,-0.04051921128097611,-13.938608680655783,2.6153846153846154,0.4011627906976744,1.0581493850981634,0.6666666666666666,2.768987341772152,0.6962025316455697,0.3037974683544304,75.1,-1.002,0.45930232558139533,-0.14362859074838757,-22.693317338245237,0.3924050632911392,0.5352545083708536,0.502906976744186,0.10268305728519422,0.1343794844213849,0.42196531791907516,1.4972938023812634,-0.11328072135374385,0.44782608695652176,0.3313953488372093,0.10628032658513425,0.30701754385964913,0.145,0.081,0.064
Charles Huff,2026,Memphis,American Athletic,0,5,0,0,0,40.82,11.64,6.859999999999999,6.720000000000001,36.5,20.580000000000002,5.5600000000000005,NA,NA,-1.5,2.3,32.2,30,133,97,1454,16,206,1252,9,2706,345,2.3627439789978313,2.129681386249301,69,57,0.28057312664760786,96.79772869342472,4.9375,0.4985507246376812,1.3097473937049489,0.8095238095238095,3.529292929292929,1.3131313131313131,2.212121212121212,75.8,0.994,8761,0.5739130434782609,0.6,0.20189448293944504,39.97510762201012,0.4898989898989899,0.9543599299897495,0.39710144927536234,-0.03362690777118721,0.4,0.598254473021898,81.96086280400003,0.5401459854014599,1.7920228038430515,0.24345966743608408,0.5440613026819924,0.24347826086956523,0.39588994634055685,0.35714285714285715,0.11,0.061,0.049,313,56,0.1528152522961895,47.83117396870731,3.2142857142857144,0.402555910543131,1.4104491794551026,0.8421052631578947,3.1658064516129034,1.2580645161290323,2.129032258064516,73.5,-1.118,0.4952076677316294,0.2757049824463353,42.73427227918197,0.45161290322580644,1.1374129054503612,0.4792332268370607,-0.011236864119768097,0.09323220877810515,0.36666666666666664,1.7161509767138186,0.18440715871182772,0.48292682926829267,0.3450479233226837,0.09284913363687619,0.25,0.166,0.109,0.058
Mario Cristobal,2026,Miami,ACC,0,5,0,0,0,68.08000000000001,27.46,13.419999999999998,7.58,38.24,13.459999999999999,10.620000000000001,NA,NA,19.2,25.7,39.5,14,159,132,1672,18,179,1102,14,2774,344,2.016215688189899,1.8163471241170537,68.8,58,0.4203429235440915,144.59796569916747,4.975609756097561,0.561046511627907,1.2584052626118398,0.7894736842105263,3.8942528735632185,1.4482758620689655,1.9942528735632183,70.8,1.39,10237,0.5058139534883721,0.43636363636363634,0.14656752992086555,25.502750206230605,0.5172413793103449,0.9326395903578748,0.4622093023255814,0.07337325330388672,0.5636363636363636,0.7448307332885135,118.42808659287364,0.6226415094339622,1.4995235319939386,0.4646335199754394,0.6156716417910447,0.22093023255813954,0.26416029402302255,0.3684210526315789,0.078,0.047,0.032,303,56,-0.055940835208166846,-16.950073068074555,2.15,0.3432343234323432,1.1931011606079558,0.5833333333333334,2.2877551020408164,0.6020408163265306,0.3163265306122449,75.7,-0.931,0.3234323432343234,-0.14763971477218552,-14.46869204767418,0.2755102040816326,0.8221390070043559,0.6567656765676567,0.1204265107909046,0.020166262622552708,0.38190954773869346,1.3275317145676666,-0.08867844212077543,0.38974358974358975,0.3564356435643564,0.003168732828487533,0.25925925925925924,0.158,0.106,0.053
Chuck Martin,2026,Miami (OH),Mid-American,0,5,0,0,0,46.6,11.5,10.280000000000001,9.24,12.48,4.24,3.9199999999999995,NA,NA,-8.7,-4.3,24.5,28.9,136,89,1354,8,152,502,6,1856,296,1.8950064020486557,1.8958772193800784,59.2,51,0.19282021335120111,57.07478315195553,3.75,0.4189189189189189,1.3887675052528525,0.6923076923076923,3.0140845070422535,0.9788732394366197,0.8873239436619719,69.5,1.449,9372,0.4797297297297297,0.5113636363636364,0.034991843787259905,4.968841817790906,0.38028169014084506,0.8824749790313081,0.4831081081081081,0.03917892653691135,0.48863636363636365,0.5024262224759592,71.84694981406219,0.46853146853146854,1.807281504570806,0.15052660621078917,0.4729064039408867,0.3141891891891892,0.28513851710930455,0.3010752688172043,0.149,0.115,0.034,318,53,0.17378111037100785,55.2623930979805,4.269230769230769,0.4591194968553459,1.2628420508940832,0.8095238095238095,2.747244094488189,0.968503937007874,1.1732283464566928,74,-1.106,0.39937106918238996,0.044193246847296336,5.612542349606635,0.4330708661417323,0.9098506892248491,0.5754716981132075,0.10040822478908079,0.35919077671797744,0.4918032786885246,1.4805285890210063,0.14792436375173437,0.5117370892018779,0.330188679245283,0.22623336779867692,0.3523809523809524,0.116,0.072,0.044
Kyle Whittingham,2026,Michigan,Big Ten,0,5,0,0,0,32.059999999999995,18.52,11.059999999999999,2.04,17.5,9.74,7.08,NA,NA,3.4,14.3,28.8,14.4,117,69,904,6,176,675,7,1579,297,2.096470588235294,1.8738574040219378,59.4,51,0.09201113733312004,27.32730778793665,3.0689655172413794,0.42424242424242425,1.1458666743720982,0.75,3.1610778443113774,0.8203592814371258,0.437125748502994,73.3,1.251,8500,0.5622895622895623,0.6069364161849711,0.04490295622354507,7.498793689332027,0.40718562874251496,0.8302481079820624,0.41414141414141414,-0.028771345300606377,0.3930635838150289,0.21405360520787153,26.3285934405682,0.45528455284552843,1.5439344985854007,-0.03154212113849529,0.45023696682464454,0.2895622895622896,0.39514762032743206,0.36046511627906974,0.162,0.088,0.074,307,55,-0.11495592551028512,-35.29146913165753,1.9259259259259258,0.3257328990228013,1.1422151068439668,0.6666666666666666,2.481366459627329,0.7453416149068323,0.30434782608695654,70.5,-1.388,0.5244299674267101,-0.13675142747581714,-22.01697982360656,0.32298136645962733,0.7033983935092628,0.4495114006514658,-0.06145338201111411,-0.10630436915801687,0.3333333333333333,1.6143730989293381,-0.09416286493105841,0.3969849246231156,0.3517915309446254,-0.15326906491089728,0.19444444444444445,0.169,0.13,0.039
Pat Fitzgerald,2026,Michigan State,Big Ten,0,5,0,0,0,26.22,8.32,6.68,6.44,20.92,10.780000000000001,5.9,NA,NA,4.1,0.3,25.3,24.9,140,88,910,3,198,618,6,1528,345,2.1775720597517356,1.9375443577004967,69,50,-0.05011743180528575,-17.290513972823586,3,0.4260869565217391,1.0122697677474677,0.7037037037037037,2.9027173913043476,0.8097826086956522,0.4782608695652174,69.5,1.422,9506,0.5333333333333333,0.569620253164557,-0.03531951571122578,-6.4987908908655445,0.42391304347826086,0.7984525459681728,0.43768115942028984,-0.03367148420130395,0.43037974683544306,-0.014082512718289236,-2.1264594204616745,0.4370860927152318,1.2773056724079066,-0.04666867311324067,0.48616600790513836,0.26666666666666666,-0.05960151820840974,0.2608695652173913,0.18,0.107,0.072,296,50,0.17571281192815832,52.010992330734865,3.7083333333333335,0.40202702702702703,1.3404679196879485,0.6818181818181818,2.9006060606060604,1,1.1151515151515152,71.9,-1.262,0.5574324324324325,0.1021560231976859,16.855743827618173,0.4121212121212121,0.9926167140054701,0.4155405405405405,-0.011102956655021312,0.2467925902484542,0.3821138211382114,1.8052989934663384,0.05635299816922551,0.4536082474226804,0.34459459459459457,0.4027304969206384,0.30392156862745096,0.139,0.081,0.057
Derek Mason,2026,Middle Tennessee,Conference USA,0,5,0,0,0,36.68,17.7,5.6,5.040000000000001,11.08,9.48,0.9199999999999999,NA,NA,-18.8,-16,18,34,156,88,913,8,128,620,3,1533,290,2.080593088604568,1.8778625954198473,58,50,0.0984624971409787,28.55412417088382,3.8333333333333335,0.38620689655172413,1.2003296816665974,0.7333333333333333,3.254166666666667,1.35,1.1,72.4,1.232,8363,0.41379310344827586,0.4732824427480916,0.06617164608886147,7.940597530663376,0.4166666666666667,0.9306847762090845,0.5586206896551724,0.06332188637461522,0.5267175572519084,0.1369855903103607,22.191665630278436,0.37037037037037035,1.4430588614447613,0.11179436824337166,0.46596858638743455,0.3413793103448276,0.07274141248888721,0.23232323232323232,0.145,0.072,0.072,324,53,0.215439255478276,69.80231877496142,3.5,0.5061728395061729,1.1214751430067802,0.75,3.577319587628866,1.3969072164948455,1.3505154639175259,73.5,-1.139,0.5987654320987654,0.2435188076542388,47.24264868492233,0.5463917525773195,1.0558017258459338,0.3765432098765432,-0.03793572991232119,0.18783867710601146,0.45081967213114754,1.2997848227947328,0.1749100719379656,0.5685483870967742,0.2345679012345679,0.3476923807150784,0.3026315789473684,0.102,0.062,0.04
P.J. Fleck,2026,Minnesota,Big Ten,0,5,0,0,0,38.14,13.940000000000001,12.6,7.220000000000001,30.360000000000003,13.059999999999999,11.1,NA,NA,3.1,6.5,27.7,21.2,166,112,1171,8,159,602,8,1773,332,1.9104248585403278,1.7888652266504412,66.4,58,0.0622293198819209,20.66013420079774,3.125,0.45180722891566266,1.071185076908685,0.6363636363636364,2.380128205128205,0.7628205128205128,1.1666666666666667,63.9,1.833,10427,0.46987951807228917,0.5584415584415584,-0.020790621657477165,-3.243336978566438,0.4423076923076923,0.7242543682222999,0.5030120481927711,0.09490852995599758,0.44155844155844154,0.18746278656387375,31.306285356166917,0.47305389221556887,1.3602393912934445,0.09789065609561842,0.5394190871369294,0.2740963855421687,-0.032214438662047255,0.21978021978021978,0.142,0.096,0.045,281,58,-0.012774176934030103,-3.5895437184624592,3.9523809523809526,0.3701067615658363,1.1653606456651586,0.6111111111111112,2.7588235294117647,1,0.5220588235294118,77.3,-0.909,0.48398576512455516,0.08073723371483943,10.980263785218163,0.39705882352941174,0.9144833769711316,0.4804270462633452,0.037024329095167896,0.02574660820209932,0.35555555555555557,1.4509633814479852,-0.10064279960250049,0.4262295081967213,0.3487544483985765,0.15130702662035847,0.2653061224489796,0.247,0.169,0.078
Jeff Lebby,2026,Mississippi State,SEC,0,5,0,0,0,61.94,25.5,13.98,10.680000000000001,28.5,16.580000000000002,4.88,NA,NA,14.9,15.1,37.9,23.1,169,111,1546,18,187,889,7,2435,360,2.6099565007249876,2.816166883963494,72,60,0.2752330671414623,99.08390417092642,4.6,0.48055555555555557,1.3182207311418692,0.7727272727272727,3.0329545454545457,1.2215909090909092,1.5738636363636365,71.3,1.311,8276,0.4888888888888889,0.43617021276595747,0.20014647347376832,35.22577933138322,0.4943181818181818,0.9873782130153622,0.49166666666666664,0.06608531416301994,0.5638297872340425,0.429248306317504,75.97695021819821,0.4858757062146893,1.652910255293103,0.20184845191548592,0.5196850393700787,0.29444444444444445,0.451079220607481,0.3867924528301887,0.143,0.085,0.058,355,57,0.09409259051206775,33.40286963178405,4.032258064516129,0.4112676056338028,1.1633233220586756,0.625,3.130718954248366,0.8431372549019608,0.5490196078431373,71,-1.273,0.4309859154929577,0.04722919065375395,7.226066170024355,0.41830065359477125,0.7330207760041274,0.543661971830986,0.04196962927533099,0.16377889866753045,0.40932642487046633,1.536191152845815,0.08466681856770979,0.4745098039215686,0.28169014084507044,0.11812830897018055,0.25,0.172,0.087,0.085
Eli Drinkwitz,2026,Missouri,SEC,0,5,0,0,0,54.6,21.32,20.52,4.92,29.939999999999998,22.04,4.54,NA,NA,15.9,13.7,31.2,17.3,152,101,1375,13,185,860,9,2235,348,2.3015873015873014,2.1930055219563505,69.6,64,0.2377194027875097,82.72635217005337,3.813953488372093,0.4396551724137931,1.306297909586232,0.75,2.893333333333333,0.8722222222222222,1.3222222222222222,64.2,1.749,9072,0.5172413793103449,0.5185185185185185,0.0745491788479564,13.418852192632151,0.38333333333333336,0.9227208628813967,0.4425287356321839,0.007503547571867164,0.48148148148148145,0.5163468482408882,79.51741462909678,0.5,1.6542849268281925,0.18730741604154003,0.49173553719008267,0.3045977011494253,0.3528109196981197,0.32075471698113206,0.164,0.089,0.075,336,61,7.385540747612602e-4,0.24815416911978344,3.2727272727272725,0.3541666666666667,1.3791373171375807,0.7142857142857143,2.347770700636943,0.9872611464968153,0.7006369426751592,75.9,-0.956,0.46726190476190477,-0.07364605107439369,-11.562430018679809,0.3503184713375796,1.0090469216311222,0.5148809523809523,0.017485140641923413,0.130840674944388,0.36416184971098264,1.6454067879828402,-0.054476704931631016,0.41545893719806765,0.38392857142857145,0.08933978364315817,0.2558139534883721,0.22,0.14,0.08
Casey Woods,2026,Missouri State,Conference USA,0,4,0,0,0,33.175000000000004,18.05,5.15,4.575,23.025000000000002,9.700000000000001,8.950000000000001,NA,NA,-12.1,-17.6,18.7,35.9,105,71,841,5,140,555,7,1396,247,2.412109375,2.603305785123967,61.75,42,0.10104536714618226,24.958205685107018,4.368421052631579,0.4008097165991903,1.2292095221793706,0.7142857142857143,2.9938931297709925,0.9541984732824428,0.8625954198473282,73.6,1.111,6144,0.5303643724696356,0.6071428571428571,0.0234876748222502,3.076885401714776,0.44274809160305345,0.856863787612316,0.4574898785425101,-0.023771908332700598,0.39285714285714285,0.22850232843906754,25.820763113614632,0.36283185840707965,1.755942512542521,0.11171099746306722,0.49411764705882355,0.3117408906882591,0.0774978716413713,0.19480519480519481,0.166,0.113,0.053,296,45,0.22746053974840863,67.32831976552896,3.96875,0.5168918918918919,1.0234936916528945,0.8695652173913043,3.3319018404907976,1.245398773006135,1.165644171779141,67.4,-1.574,0.5506756756756757,0.10666954005046783,17.387135028226258,0.50920245398773,0.6708759507956175,0.4189189189189189,0.041197614202372224,0.38216877450962883,0.5080645161290323,1.4870150212426498,0.22022996668636663,0.580952380952381,0.2905405405405405,0.24511659024874374,0.36046511627906974,0.149,0.088,0.061
Dave Doeren,2026,NC State,ACC,0,5,0,0,0,36.88,17.18,7.62,4.4799999999999995,27.540000000000003,12.580000000000002,9.3,NA,NA,1.1,3.4,31.5,28,163,108,1304,9,199,996,14,2300,367,2.16903073286052,2.176470588235294,73.4,61,0.23086747138012037,84.72836199650418,4.2368421052631575,0.4659400544959128,1.2509902820927428,0.8620689655172413,3.1582010582010582,1.0158730158730158,1.582010582010582,71.5,1.306,10152,0.5149863760217984,0.5054945054945055,0.13581613202876153,25.66924895343593,0.4444444444444444,0.9549372708167472,0.45776566757493187,0.046801147383214836,0.4945054945054945,0.36144169888188044,60.722205412155915,0.49404761904761907,1.5506423366234745,0.13880080722323987,0.503968253968254,0.3133514986376022,0.4326135528369368,0.3826086956521739,0.147,0.079,0.068,297,61,0.14103109757907178,41.886235980984324,3.5714285714285716,0.41414141414141414,1.3038358104597854,0.68,2.8846153846153846,1.1608391608391608,1.5664335664335665,71.9,-1.252,0.48148148148148145,0.06334420421932437,9.058221203363384,0.45454545454545453,1.083642793465391,0.48484848484848486,0.0066407888306904694,0.2909678173573401,0.3888888888888889,1.5764960640645036,0.072627212760176793,0.47115384615384615,0.2996632996632997,0.30089635648165786,0.2808988764044944,0.178,0.091,0.088
Brian Newberry,2026,Navy,American Athletic,0,4,0,0,0,20.55,5.5,4.85,4.675000000000001,9.975,8.5,0.8500000000000001,NA,NA,-13.8,-3.7,25.9,29.8,60,24,415,3,197,1111,10,1526,256,2.0587052673904305,1.905722208217797,64,43,0.16834683368329506,43.096789422923536,4.3,0.46875,1.1502601508636117,0.96,3.718947368421053,1.2842105263157895,1.5578947368421052,73.5,1.165,7461,0.7421875,0.7878787878787878,0.2523623052999884,47.948838006997796,0.531578947368421,1.0222608033862146,0.25390625,-0.24879385731312864,0.21212121212121213,-0.07435232889710856,-4.832901378312057,0.2923076923076923,1.8306777348224064,0.22279393136192047,0.5842696629213483,0.3046875,0.04409576462181663,0.20512820512820512,0.156,0.105,0.051,253,43,0.06779733872170056,17.152726696590243,3.6470588235294117,0.37549407114624506,1.3253997134015298,0.8823529411764706,2.6404109589041096,0.6643835616438356,0.3150684931506849,68.7,-1.51,0.5770750988142292,-0.03267465928648619,-4.770500255826984,0.3424657534246575,0.9175499772209735,0.3715415019762846,-0.07786569813506145,0.29658142396574216,0.4574468085106383,1.7870932424222787,-0.10394345811864569,0.41566265060240964,0.3438735177865613,0.3954866752216716,0.2988505747126437,0.13,0.103,0.028
Matt Rhule,2026,Nebraska,Big Ten,0,5,0,0,0,40.62,20.740000000000002,10.92,3.66,42.660000000000004,16.300000000000004,15.319999999999999,NA,NA,16.9,16.9,35.2,18.3,156,103,1223,14,198,1155,14,2378,358,2.1990171990171987,2.315303430079156,71.6,55,0.3683272685394712,131.8611621371307,5.205882352941177,0.49441340782122906,1.3812361272051612,0.7307692307692307,3.4541666666666666,1.3958333333333333,1.828125,69.1,1.443,9768,0.5363128491620112,0.5625,0.3599702998247327,69.11429756634868,0.4895833333333333,1.2743640235190414,0.4441340782122905,0.04235188804163553,0.4375,0.37585277762701647,59.760591642695616,0.4968553459119497,1.506862870769814,0.23090539083520056,0.5215686274509804,0.2877094972067039,0.7085464803315974,0.42718446601941745,0.117,0.075,0.042,305,60,-0.05442242541376125,-16.598839751197183,2.24,0.35081967213114756,1.302525378479021,0.8,2.9710344827586206,0.9655172413793104,0.8689655172413793,71.6,-1.262,0.47540983606557374,0.05670777325665446,8.222627122214897,0.3586206896551724,1.1195398255760463,0.49508196721311476,-0.005953769758343719,-0.20869799103246808,0.32450331125827814,1.4120992618735644,0.01046176038745186,0.4444444444444444,0.380327868852459,-0.16013890055539295,0.19827586206896552,0.187,0.125,0.062
Jeff Choate,2026,Nevada,Mountain West,0,4,0,0,0,28,8.05,7.9,5.8500000000000005,32.550000000000004,15.725000000000001,13.250000000000002,NA,NA,-14.9,-6.5,21.6,28.4,108,61,739,3,146,770,10,1509,256,2.4564209179593797,2.042079207920792,64,45,0.09346339458213704,23.926629013027082,4.045454545454546,0.4140625,1.2947367406781387,0.64,3.2359154929577465,1.352112676056338,1.6056338028169015,73.3,1.195,6253,0.5546875,0.6067415730337079,0.21830582703482745,30.9994274389455,0.49295774647887325,1.0894379221522277,0.421875,-0.06776192627610672,0.39325842696629215,-0.014967464671559258,-1.6164861845283998,0.32407407407407407,1.6914417355256506,0.06428758390007416,0.46551724137931033,0.3203125,0.15537304163919727,0.3048780487804878,0.129,0.074,0.055,304,47,0.14912307920175932,45.33341607733483,3.24,0.42105263157894735,1.120475603033139,0.625,3.271891891891892,1.0864864864864865,0.6378378378378379,70.8,-1.277,0.6085526315789473,0.12490696960194121,23.107789376359126,0.43783783783783786,0.8739485164735511,0.35855263157894735,-0.10907396476250142,0.2710406838285237,0.42201834862385323,1.5346133026969546,0.1331050564216885,0.47368421052631576,0.3125,0.18436272931791517,0.30526315789473685,0.112,0.063,0.049
Jason Eck,2026,New Mexico,Mountain West,0,5,0,0,0,25.1,10.16,4.640000000000001,4.58,32.480000000000004,14.2,8.7,NA,NA,9.3,7.7,27.9,20.4,102,59,884,7,223,1044,18,1928,331,1.94021101992966,1.8730046115643846,66.2,58,0.19095419775573078,63.20583945714688,4.195121951219512,0.43202416918429004,1.2600191315487879,0.8461538461538461,3.2740566037735848,1.1273584905660377,1.2877358490566038,60.7,2.075,10236,0.6404833836858006,0.5571428571428572,0.2561721222841854,54.30848992424731,0.45754716981132076,1.1213685584605266,0.3413897280966767,-0.07269837154791903,0.44285714285714284,0.110532499910186,12.490172489851018,0.3893805309734513,1.5565233400615541,0.19509280145106658,0.4872881355932203,0.28700906344410876,0.18067303489152808,0.29473684210526313,0.115,0.082,0.033,291,61,-0.17724573329870952,-51.578508389924465,1.6,0.3127147766323024,1.458420513732193,0.5384615384615384,2.0883561643835615,0.910958904109589,1.1575342465753424,76.5,-0.917,0.5017182130584192,-0.09555237577790063,-13.950646863573493,0.3082191780821918,1.0975115593721207,0.45017182130584193,-0.04766908832025685,-0.05821647145510243,0.33587786259541985,1.878268944789936,-0.2652576035167768,0.3559322033898305,0.3917525773195876,-0.04059572427592078,0.24561403508771928,0.258,0.182,0.076
Tony Sanchez,2026,New Mexico State,Conference USA,0,5,0,0,0,35.78,13.3,5.220000000000001,4.42,28.5,16.619999999999997,8.14,NA,NA,-13,-17.8,18.1,35.7,165,97,1232,7,161,749,6,1981,333,2.360028348688873,2.1774193548387095,66.6,58,0.09032356356537821,30.077746667270944,3.655172413793103,0.42042042042042044,1.4266604571936459,0.7,3.0631578947368423,1.2171052631578947,1.5592105263157896,73.1,1.188,8466,0.45645645645645644,0.5476190476190477,0.08704657075515092,13.231078754782938,0.4407894736842105,1.087517964825518,0.5075075075075075,0.04790860948424713,0.4523809523809524,0.1866839880729167,31.549593984322925,0.42011834319526625,1.7772443289672362,-0.06978092375687893,0.44541484716157204,0.3123123123123123,0.4428613289191944,0.36538461538461536,0.168,0.09,0.078,340,60,0.07674571607938381,26.093543466990496,4.064516129032258,0.40294117647058825,1.2276199554222154,0.8333333333333334,3.0044025157232706,1,1.4150943396226414,69.2,-1.443,0.4676470588235294,0.11559789732949581,18.380065675389833,0.41509433962264153,0.9699288058022996,0.5147058823529411,0.04249206526265459,0.0803025950270535,0.3942857142857143,1.4792303701962792,0.025315431635617582,0.4533333333333333,0.3382352941176471,0.17737018564327425,0.30434782608695654,0.132,0.088,0.044
Bill Belichick,2026,North Carolina,ACC,0,4,0,0,0,20.05,11.825,3.4,2.7750000000000004,25.875,10.825000000000001,9.25,NA,NA,7.3,3,23.9,21.2,112,64,841,6,118,542,5,1383,233,2.1239744758432084,1.9341703427214116,58.25,39,0.12978442357527237,30.239770693038462,4.45,0.4592274678111588,1.1127271002628332,0.7777777777777778,3.7209090909090907,1.4545454545454546,0.6636363636363637,72.3,1.291,6582,0.4721030042918455,0.5189873417721519,0.10239765053781713,11.263741559159884,0.4727272727272727,0.753300905037955,0.5064377682403434,0.034507688625078414,0.4810126582278481,0.19639547093100526,23.17466556985862,0.4406779661016949,1.4795718087132161,-0.024968051598283896,0.5031847133757962,0.3261802575107296,0.44947045781538203,0.3684210526315789,0.15,0.082,0.069,284,42,0.06086003873840658,17.284251001707467,3.375,0.43661971830985913,1.0187963489594314,0.8636363636363636,3.260839160839161,0.8811188811188811,0.9230769230769231,68.5,-1.437,0.5035211267605634,0.11319573947941038,16.186990745555683,0.46853146853146854,0.8046244111884088,0.4612676056338028,0.011443864554166794,0.11131514128770051,0.4198473282442748,1.298371584400026,0.06704282323550113,0.5198019801980198,0.2887323943661972,0.04562927692849072,0.23170731707317074,0.13,0.081,0.049
Tim Polasek,2026,North Dakota State,Mountain West,0,5,0,0,0,33.480000000000004,13.5,7.6800000000000015,3.44,26.8,13.559999999999999,8.98,NA,NA,3.8,7.8,28.6,20.9,122,79,1034,7,203,855,10,1889,330,2.0338983050847457,1.884004432951607,66,52,0.16783493464288166,55.38552843215094,4.166666666666667,0.42424242424242425,1.306751352806306,0.75,2.9829896907216495,1.0824742268041236,0.9123711340206185,71.1,1.371,9735,0.5878787878787879,0.5692307692307692,0.07069108907902054,13.714071281329984,0.4020618556701031,1.0177083275106396,0.3878787878787879,-0.019160884504578424,0.4307692307692308,0.35413711654928787,45.32955091830885,0.46875,1.6955411847415025,0.06622830522601475,0.48034934497816595,0.30606060606060603,0.39821036173656993,0.297029702970297,0.13,0.079,0.052,291,54,-0.18178815740013113,-52.90035380343816,1.631578947368421,0.3745704467353952,1.0015863297820013,0.7083333333333334,2.720625,0.80625,0.4125,72.7,-1.141,0.5498281786941581,-0.192528809740183,-30.80460955842928,0.3875,0.6995265793365636,0.41924398625429554,-0.1445732940456052,-0.14787752025269493,0.36065573770491804,1.4499857329323445,-0.08340590139228368,0.4846938775510204,0.32646048109965636,-0.38476628558474274,0.14736842105263157,0.175,0.103,0.072
Neal Brown,2026,North Texas,American Athletic,0,5,0,0,0,52.260000000000005,15.02,11.7,7.859999999999999,37.78,30.72,4.9399999999999995,NA,NA,5.1,-5.7,29.7,35.1,182,132,1691,12,189,892,13,2583,377,2.246945465381941,2.49728555917481,75.4,61,0.28019999731155437,105.635398986456,4.487179487179487,0.48010610079575594,1.3267510955924169,0.6470588235294118,3.008695652173913,1.108695652173913,1.2717391304347827,70.9,1.314,10067,0.4880636604774536,0.4,0.11519225065175169,21.195374119922313,0.4076086956521739,1.0919924971633306,0.4880636604774536,0.028255113461257364,0.6,0.47811823055384267,87.97375442190705,0.5652173913043478,1.5091756442083293,0.24804306300941362,0.5307692307692308,0.3103448275862069,0.3516598513163116,0.36752136752136755,0.114,0.069,0.045,335,60,0.1319734553370061,44.21110753789705,4.366666666666667,0.43582089552238806,1.2194330404996205,0.6875,2.6579234972677597,0.9180327868852459,1.284153005464481,66,-1.653,0.5462686567164179,0.028956630474202792,5.29906337677911,0.4098360655737705,0.8301960754188612,0.42686567164179107,-0.03584699098482952,0.3562513673430464,0.4825174825174825,1.6474224176839072,0.04144478539966632,0.46938775510204084,0.26865671641791045,0.3784126123886533,0.34444444444444444,0.155,0.099,0.057
Rob Harley,2026,Northern Illinois,Mountain West,0,4,0,0,0,41.15,17.05,8.125,6.45,18.2,12.35,4.324999999999999,NA,NA,-16.6,-23.9,12.8,36.4,139,93,884,3,122,317,3,1201,265,2.250849377123443,2.118155619596542,66.25,46,-0.1206541817533527,-31.973358164638466,1.5454545454545454,0.3622641509433962,1.1902069954238734,0.7647058823529411,2.56,0.9428571428571428,0.780952380952381,72.3,1.204,7064,0.39622641509433965,0.525,-0.1120591510768567,-11.766210863069952,0.38095238095238093,0.8765935480033666,0.5773584905660377,0.03459619607014086,0.475,0.006722756504782466,1.0285817452317172,0.3660130718954248,1.4142166007242354,-0.1582157786792664,0.4418604651162791,0.35094339622641507,-0.051185421847361766,0.21505376344086022,0.177,0.132,0.045,268,45,0.15856388977800073,42.49512246050419,3.730769230769231,0.44402985074626866,1.3225028869796787,0.5789473684210527,2.902325581395349,1.2403100775193798,1.4883720930232558,70.7,-1.371,0.48134328358208955,0.11049453925654841,14.253795564094744,0.4108527131782946,1.0761076063449178,0.48507462686567165,0.11121342140226509,0.26039342555475853,0.49230769230769234,1.4886973991289363,0.029500682988650568,0.47802197802197804,0.3208955223880597,0.43169765298336965,0.37209302325581395,0.127,0.086,0.041
David Braun,2026,Northwestern,Big Ten,0,4,0,0,0,23.55,14.025,6.5,2.575,36.2,18.450000000000003,13.525,NA,NA,17.6,7.3,28.1,21.2,90,63,900,6,164,851,10,1751,258,2.0798065296251513,1.990918616835487,64.5,46,0.28858030463766776,74.45371859651827,4.666666666666667,0.4883720930232558,1.2601102727368148,0.75,3.1065359477124184,1.3660130718954249,1.9869281045751634,72.3,1.236,7443,0.5930232558139535,0.6219512195121951,0.24099217836566927,36.8718032899474,0.47058823529411764,1.113273707142366,0.375968992248062,-0.048533854432404044,0.3780487804878049,0.4095356989589265,39.72496279901587,0.5257731958762887,1.523709536247152,0.20931918107982736,0.5294117647058824,0.2751937984496124,0.4973384751350783,0.38028169014084506,0.132,0.109,0.023,287,46,0.0663375134018414,19.038866346328483,2.7272727272727275,0.4425087108013937,1.0934431464507535,0.64,3.237007874015748,0.952755905511811,1.5748031496062993,72.5,-1.173,0.4425087108013937,0.07583540258489749,9.631096128281982,0.4566929133858268,0.8464470130433339,0.5296167247386759,0.034671298657674265,0.09985495734903177,0.4276315789473684,1.3188277547431817,0.06834187721845669,0.5093457943925234,0.25435540069686413,0.060461707144914355,0.2465753424657534,0.174,0.059,0.115
Marcus Freeman,2026,Notre Dame,FBS Independents,0,5,0,0,0,44.96,17.22,13.360000000000003,4.96,35.08,16.18,12.2,NA,NA,25.8,28.1,40.5,12.7,141,99,1334,14,184,808,10,2142,336,2.0647275706677592,1.9047619047619049,67.2,51,0.3185159595963034,107.02136242435795,5.166666666666667,0.5238095238095238,1.0895594623675577,0.7777777777777778,3.1945054945054947,0.8571428571428571,0.5934065934065934,70.3,1.391,9764,0.5416666666666666,0.5263157894736842,0.1642443573807947,29.892473043304634,0.5,0.7874210454909361,0.4255952380952381,0.0723197213159158,0.47368421052631576,0.5280390492925932,75.50958404884081,0.5594405594405595,1.4515842280757851,0.3697431073867944,0.6060606060606061,0.21428571428571427,0.130683084364503,0.2222222222222222,0.101,0.036,0.065,276,51,-0.06554166715966883,-18.089500136068597,2.473684210526316,0.34782608695652173,1.2017144459947056,0.7333333333333333,2.452238805970149,0.6268656716417911,0.20149253731343283,73.7,-1.114,0.4855072463768116,-0.1885263392772023,-25.262529463145107,0.291044776119403,0.8615120223719694,0.4891304347826087,-0.04082597369202101,0.05653579783366203,0.4,1.4232700768941868,-0.16153177582553943,0.3898305084745763,0.358695652173913,0.10607701197022104,0.2727272727272727,0.236,0.152,0.083
John Hauser,2026,Ohio,Mid-American,0,5,0,0,0,28.28,16.14,8.22,2.8600000000000003,19.12,10.900000000000002,4.860000000000001,NA,NA,-8.7,-10.5,21.2,31.3,118,71,789,7,197,939,8,1728,320,2.0445107017357045,1.3529765484064944,64,51,0.16784465161607284,53.71028851714331,3.870967741935484,0.446875,1.152658092601954,0.7931034482758621,3.469312169312169,1.17989417989418,0.9894179894179894,69,1.479,9391,0.590625,0.5952380952380952,0.19614709213395792,37.071800413318044,0.4656084656084656,0.9338531973699479,0.390625,-0.07968842131411952,0.40476190476190477,0.09214587548522045,11.518234435652557,0.4,1.524855055475985,0.2185566729486915,0.5155555555555555,0.296875,0.04773723267039707,0.28421052631578947,0.142,0.083,0.058,325,49,0.20437939909962946,66.42330470737957,4.333333333333333,0.4276923076923077,1.3022918502326009,0.6785714285714286,2.7535911602209944,0.9723756906077348,0.8674033149171271,71,-1.281,0.556923076923077,0.12396333747446897,22.437364082878883,0.39779005524861877,1.047341406132509,0.41846153846153844,-0.030996892744788784,0.3912253330705276,0.47794117647058826,1.6050594984669504,0.0831422852791378,0.4391304347826087,0.2923076923076923,0.49790083255976714,0.4,0.165,0.107,0.058
Ryan Day,2026,Ohio State,Big Ten,0,5,0,0,0,64.26,36.160000000000004,10.7,6.140000000000001,32.980000000000004,12.76,12.580000000000002,NA,NA,22.3,28.8,41.6,12.7,160,117,1785,16,183,787,11,2572,345,2.1846965699208445,1.761297798377752,69,56,0.3527675325581018,121.70479873254511,4.909090909090909,0.5159420289855072,1.313927098245284,0.7931034482758621,3.1405714285714286,1.0285714285714287,0.8514285714285714,68.1,1.549,9475,0.5072463768115942,0.5588235294117647,0.11929539509688257,20.87669414195445,0.45714285714285713,0.9258725683146636,0.4753623188405797,0.06073489228029988,0.4411764705882353,0.6668891552521579,109.3698214613539,0.5914634146341463,1.64142862016536,0.3486298869068922,0.5692307692307692,0.2463768115942029,0.36542386043238984,0.35294117647058826,0.119,0.072,0.046,323,57,-0.08182601968381716,-26.429804357872943,3,0.3622291021671827,1.1903355887490543,0.7,2.649305555555556,1.1041666666666667,0.5972222222222222,75.4,-0.98,0.4458204334365325,-0.07313250767497492,-10.531081105196389,0.4236111111111111,0.9248448533703857,0.5263157894736842,0.01282595499021233,-0.07910149490723464,0.31176470588235294,1.493215201392777,-0.20433398391173685,0.4097560975609756,0.3653250773993808,0.13100561308502637,0.2796610169491525,0.201,0.102,0.099
Brent Venables,2026,Oklahoma,SEC,0,4,0,0,0,30.025000000000002,14.600000000000001,5.6,3.5,12.500000000000002,7.875000000000001,2.45,NA,NA,4.3,12.8,26.1,13.6,112,73,889,8,135,396,2,1285,255,2.150688782682036,2.1217547000895256,63.75,47,-0.04522904063238055,-11.53340536125704,3.388888888888889,0.39215686274509803,1.1117720724855946,0.46153846153846156,2.603076923076923,0.8,0.9307692307692308,72.4,1.264,7114,0.5098039215686274,0.5735294117647058,-0.26018333926621395,-33.82383410460782,0.36153846153846153,0.5419623831473139,0.4549019607843137,-0.0076180453279188765,0.4264705882352941,0.2927645791435055,33.96069118064664,0.43103448275862066,1.7140601370957096,-0.09845787125479855,0.4318181818181818,0.30980392156862746,0.07335670860237348,0.3037974683544304,0.157,0.118,0.039,227,48,-0.18217213262775817,-41.353074106501104,2.0833333333333335,0.3039647577092511,1.2353158782344913,0.5833333333333334,2.3635658914728683,0.7596899224806202,1.2093023255813953,66.1,-1.617,0.5682819383259912,-0.10444310440649099,-13.473160468437339,0.2868217054263566,1.1709851291282893,0.4052863436123348,-0.060720691678526784,-0.16206929392664868,0.33695652173913043,1.3216418805209067,-0.22552458955946258,0.3333333333333333,0.3392070484581498,-0.09771929444911318,0.24675324675324675,0.216,0.145,0.07
Eric Morris,2026,Oklahoma State,Big 12,0,4,0,0,0,65.25,20.5,19.6,9.425,30.224999999999998,17.849999999999998,5.3,NA,NA,11.4,10.2,32.2,22.4,147,101,1308,12,163,885,5,2193,320,2.4233244982961,2.431775195893002,80,51,0.16143210183441845,51.6582725870139,3.75,0.490625,1.108175371954534,0.64,3.2263803680981593,1.2883435582822087,1.3251533742331287,71.6,1.295,7923,0.509375,0.4462809917355372,0.07063654186464674,11.513756323937418,0.4723926380368098,0.7305768064959081,0.459375,0.060823592560970696,0.5537190082644629,0.3326148683040151,48.89438564069022,0.5238095238095238,1.502716301475322,0.18411864285834503,0.5527426160337553,0.259375,0.09665246059742318,0.3132530120481928,0.091,0.044,0.047,252,48,-0.02973431120798791,-7.493046424412953,3,0.373015873015873,1.1584523445777564,0.6111111111111112,3.0819444444444444,0.9513888888888888,0.8819444444444444,71.4,-1.248,0.5714285714285714,0.03954233375909317,5.694096061309416,0.4236111111111111,0.927308223640108,0.4087301587301587,-0.10220505155202952,-0.13561040334206056,0.30097087378640774,1.6390535169630354,-0.02903745745335077,0.45614035087719296,0.32142857142857145,-0.03120544691222187,0.19753086419753085,0.163,0.083,0.079
Ricky Rahne,2026,Old Dominion,Sun Belt,0,5,0,0,0,22.28,8.059999999999999,5.4,4.2,10.22,5.82,2.3600000000000003,NA,NA,-18.7,-7.9,18.8,26.4,122,63,758,4,179,538,5,1296,303,2.3123887051640803,1.940700808625337,60.6,65,-0.14674001830439876,-44.46222554623282,2.5,0.297029702970297,1.3340868395896117,0.36363636363636365,1.6037974683544305,1.1139240506329113,1.3037974683544304,71.3,1.267,7862,0.5214521452145214,0.5897435897435898,-0.13556732921866152,-21.41963801654852,0.3227848101265823,1.071468026733175,0.45874587458745875,-0.036944086641174934,0.41025641025641024,-0.16668680888027063,-23.169466434357616,0.26618705035971224,1.6849102338720434,-0.3531849643878358,0.30386740331491713,0.40264026402640263,0.1595430574423398,0.28688524590163933,0.254,0.208,0.046,369,65,0.020839481556737514,7.689768694436142,3.75,0.35772357723577236,1.2432160158682048,0.6363636363636364,2.5562189054726367,0.8606965174129353,0.9552238805970149,66.9,-1.574,0.5447154471544715,-0.10863340830837658,-21.83531506998369,0.3383084577114428,0.8043887147282721,0.4254742547425474,0.04075754499094253,0.24402477075095325,0.3821656050955414,1.793988672499573,-0.09435852602023766,0.3950617283950617,0.34146341463414637,0.24300706759804677,0.2857142857142857,0.157,0.119,0.038
Pete Golding,2026,Ole Miss,SEC,0,4,0,0,0,54.150000000000006,23.575000000000003,9.5,9.45,18.3,12.925,2.7750000000000004,NA,NA,8.1,11.1,37.2,26.6,153,106,1290,8,117,470,9,1760,276,2.6394644564870893,2.309433962264151,69,45,0.25167168162516396,69.46138412854526,4.75,0.5181159420289855,1.1622157256130825,0.76,2.9350877192982456,1.0789473684210527,0.5789473684210527,72.7,1.164,6274,0.41304347826086957,0.4772727272727273,0.15378805641036128,17.531838430781185,0.5175438596491229,0.8941744478670891,0.5507246376811594,0.15150486039214034,0.5227272727272727,0.4353034771765317,66.16612853083282,0.5263157894736842,1.399728869592414,0.18194334561744638,0.5679611650485437,0.2536231884057971,0.45687221330501865,0.37142857142857144,0.127,0.072,0.054,276,45,0.2245004693490552,61.962129540339234,4,0.47101449275362317,1.1445332345829773,0.8181818181818182,2.9,0.9751552795031055,1.3664596273291925,68,-1.543,0.5833333333333334,0.17668366063904561,28.44606936288634,0.4782608695652174,0.9524780398889952,0.40217391304347827,-0.09460792417600483,0.3018953141395375,0.45045045045045046,1.4796702021208183,0.21926362334236402,0.5404040404040404,0.2826086956521739,0.23779400151988667,0.2948717948717949,0.13,0.087,0.043
Dan Lanning,2026,Oregon,Big Ten,0,4,0,0,0,55.275,16.4,15.350000000000001,10.05,40.650000000000006,15.825000000000003,15.075,NA,NA,16.2,21.6,40.3,19,145,104,1388,14,139,620,10,2008,289,2.3322125084061867,2.395740905057675,72.25,49,0.3282973751105438,94.87794140694716,5.0285714285714285,0.47750865051903113,1.4144341938067029,0.8095238095238095,3.3595419847328243,1.0458015267175573,0.8702290076335878,68.2,1.516,7435,0.4532871972318339,0.48695652173913045,0.22526739545965457,29.510028805214752,0.4732824427480916,1.000658175462074,0.5259515570934256,0.08059395274022785,0.5130434782608696,0.41432368193718383,62.977199654451944,0.48026315789473684,1.7774162028215792,0.26273305672449143,0.5147058823529411,0.29411764705882354,0.48565173923706945,0.38823529411764707,0.107,0.069,0.038,268,51,-0.003303296529835803,-0.8852834699959953,3.3333333333333335,0.373134328358209,1.2391364139667749,0.75,2.6848739495798317,0.6890756302521008,0.907563025210084,72.1,-1.248,0.44402985074626866,0.041052275697262434,4.88522080797423,0.37815126050420167,0.9009418468971445,0.5223880597014925,0.07115307898235934,0.03583269499139014,0.37857142857142856,1.5397338367882014,-0.05181870126017515,0.4098360655737705,0.31716417910447764,0.10114751600724772,0.29411764705882354,0.157,0.049,0.108
JaMarcus Shephard,2026,Oregon State,Pac-12,0,5,0,0,0,55.660000000000004,31.220000000000006,8.82,8.540000000000001,24.78,14.4,4.8,NA,NA,11.2,1.2,26.5,24.8,202,139,1790,17,126,570,8,2360,342,2.201716738197425,1.721311475409836,68.4,58,0.2995528294061624,102.44706765690755,4.805555555555555,0.4824561403508772,1.3251229929985109,0.875,3.34140625,0.9140625,0.953125,74.5,1.095,9320,0.3742690058479532,0.4574468085106383,0.07854799510720936,10.054143373722798,0.4609375,0.7687206033805435,0.6111111111111112,0.1338839131114738,0.5425531914893617,0.45000972295283403,94.05203209714232,0.5023923444976076,1.635382869824947,0.2861508017265805,0.5416666666666666,0.2982456140350877,0.33108701218164943,0.3431372549019608,0.117,0.05,0.067,344,58,0.0921309016992446,31.69303018454014,3.5625,0.4273255813953488,1.0901750455843946,0.7666666666666667,3.045562130177515,0.9644970414201184,1.14792899408284,68.9,-1.455,0.49127906976744184,0.05302273322012878,8.960841914201763,0.4260355029585799,0.8036757243079009,0.4796511627906977,-0.014050237008116417,0.1457994402898769,0.43636363636363634,1.384350411175412,0.004143026306689313,0.4810126582278481,0.311046511627907,0.2870199341107923,0.308411214953271,0.169,0.09,0.078
Matt Campbell,2026,Penn State,Big Ten,0,5,0,0,0,37.32,13.36,11.48,6.76,25.360000000000003,7.420000000000002,7.42,NA,NA,7.3,16.9,32.7,16.1,150,94,1218,10,178,782,9,2000,340,2.255140393544108,2.142857142857143,68,61,0.1793708394206884,60.98608540303406,4.03030303030303,0.4235294117647059,1.2396701513874513,0.76,2.766857142857143,0.9428571428571428,0.8514285714285714,67.4,1.585,9046,0.5147058823529411,0.6363636363636364,0.07722354105790484,13.514119685133346,0.4057142857142857,0.9042065258882813,0.45294117647058824,0.01986446318527063,0.36363636363636365,0.3605780323671515,55.529016984541336,0.44805194805194803,1.6131511674928365,0.13247601736301118,0.476,0.2647058823529412,0.3096342340253474,0.2777777777777778,0.135,0.056,0.079,311,62,-0.02435717918121634,-7.575082725358282,3.7,0.36977491961414793,1.1750688322104939,0.6666666666666666,2.8666666666666667,1.0994152046783625,1.543859649122807,75.4,-0.995,0.5498392282958199,0.15177393477112966,25.953342845863173,0.4152046783625731,1.2005983674203142,0.4180064308681672,-0.046461235088039954,-0.18021365228203431,0.3153846153846154,1.1263227066848223,-0.10243497576047651,0.43601895734597157,0.3215434083601286,0.14038697160102262,0.23,0.18,0.109,0.071
Pat Narduzzi,2026,Pittsburgh,ACC,0,5,0,0,0,51.54,12.5,12.36,9,35.239999999999995,13.959999999999999,8.559999999999999,NA,NA,12.9,14.7,32,17.4,179,120,1580,17,172,810,8,2390,354,2.238617200674536,2.375249500998004,70.8,60,0.25597811429056405,90.61625245885968,4.2631578947368425,0.4604519774011299,1.2931798988478906,0.6666666666666666,3.1373493975903615,1.2108433734939759,1.2650602409638554,68.9,1.532,9488,0.4689265536723164,0.4444444444444444,0.06274602064412724,10.415839426925121,0.4397590361445783,0.8712113268258782,0.5141242937853108,0.09582049149304717,0.5555555555555556,0.4595037054502857,83.629674391952,0.4835164835164835,1.6433889435890172,0.18368073485892458,0.5040322580645161,0.2994350282485876,0.42512670013062626,0.3584905660377358,0.113,0.068,0.045,315,62,-0.054166733554855906,-17.06252106977961,2.5217391304347827,0.3142857142857143,1.4503054011498506,0.5882352941176471,1.75,0.7578125,0.3984375,74.3,-1.082,0.40634920634920635,-0.21680983887508481,-27.751659376010856,0.28125,1.0293970208284309,0.5523809523809524,0.048127463743090626,0.14695697466600713,0.3505747126436782,1.6953984869553609,-0.1246497715905632,0.37628865979381443,0.38412698412698415,0.0588391290809062,0.21487603305785125,0.171,0.114,0.057
Barry Odom,2026,Purdue,Big Ten,0,5,0,0,0,51.92,15.260000000000002,14.219999999999999,7.9,25.6,18.240000000000002,3.9800000000000004,NA,NA,2.4,-6.4,28.3,35.1,171,122,1533,9,172,496,7,2029,348,2.1720586705502964,1.842299189388357,69.6,53,0.2477751606899769,86.22575592011196,3.5588235294117645,0.46264367816091956,1.2109351995310158,0.75,2.807547169811321,0.8301886792452831,0.44654088050314467,73.7,1.126,9613,0.45689655172413796,0.5242718446601942,0.06878421991079355,10.936690965816174,0.41509433962264153,0.901797445344842,0.5201149425287356,0.060190407449708216,0.47572815533980584,0.421232580929369,76.24309714821578,0.5138121546961326,1.3976079560429835,0.18315665741328477,0.508,0.28160919540229884,0.41261828129378336,0.3469387755102041,0.129,0.092,0.037,324,51,0.29735516399800965,96.34307313535513,4.741935483870968,0.4845679012345679,1.373773066139777,0.782608695652174,3.3454545454545457,1.3393939393939394,1.5696969696969696,72.9,-1.187,0.5092592592592593,0.26872167096513777,44.33907570924773,0.49696969696969695,1.030536275106886,0.4660493827160494,0.0075175111664942396,0.35634213292337175,0.47019867549668876,1.7986137473530783,0.14960835627095073,0.5132743362831859,0.30246913580246915,0.6380773940624517,0.41836734693877553,0.136,0.077,0.059
Scott Abell,2026,Rice,American Athletic,0,5,0,0,0,22.240000000000002,6.08,4.640000000000001,4.340000000000001,15.24,5.2,4.96,NA,NA,-7.1,-15.1,18.5,33.6,71,37,420,2,240,1226,10,1646,316,2.1120641639746016,1.999061473486626,63.2,51,0.030310358355768938,9.578073240422984,3.32,0.4208860759493671,1.1421056893350185,0.7894736842105263,3.127586206896552,1.1163793103448276,1.5172413793103448,75.5,1.006,8977,0.7341772151898734,0.8468468468468469,0.0659687587754828,15.304752035912012,0.46120689655172414,0.9919827518509183,0.24367088607594936,-0.27082105454624883,0.15315315315315314,-0.04187321256162418,-3.224237367245062,0.3116883116883117,1.7856025195621725,0.0781199283137789,0.5022421524663677,0.29430379746835444,-0.08432979326397538,0.22580645161290322,0.149,0.127,0.022,334,51,0.11521647636715344,38.482303106629246,3.84375,0.4161676646706587,1.3139271315578964,0.6818181818181818,2.7296703296703297,1.0494505494505495,1.6373626373626373,67.5,-1.555,0.5449101796407185,0.13296810627740374,24.20019534248748,0.4230769230769231,1.1309038786965766,0.4281437125748503,0.019688169492926788,0.09517145922100485,0.4125874125874126,1.5097306364609893,0.057263693314133925,0.47297297297297297,0.33532934131736525,0.23008717134724568,0.30357142857142855,0.141,0.105,0.036
Greg Schiano,2026,Rutgers,Big Ten,0,5,0,0,0,49.9,27.560000000000002,7.8,6.380000000000001,27.5,18.62,7.94,NA,NA,-10.8,-1.6,31,32.8,147,86,1304,13,180,677,7,1981,331,2.1336484744305975,1.9389587073608618,66.2,57,0.10675643332771091,35.33637943147231,4.071428571428571,0.4471299093655589,1.3411331691357313,0.6216216216216216,2.8875,0.8690476190476191,0.8630952380952381,70.4,1.345,9308,0.5075528700906344,0.4935064935064935,-0.026506916192479746,-4.453161920336598,0.44642857142857145,0.7818961615674184,0.47129909365558914,0.0076724694687530515,0.5064935064935064,0.322217063418355,50.26586189326338,0.4551282051282051,1.9251488318576038,-0.01798465549364046,0.4824561403508772,0.311178247734139,0.3828823386798285,0.36893203883495146,0.151,0.076,0.076,310,57,0.2339741202054639,72.53197726369382,4.125,0.4612903225806452,1.2377619741535941,0.75,3.2239263803680984,1.50920245398773,1.9631901840490797,70,-1.362,0.5258064516129032,0.189991795837828,30.968662721565966,0.4785276073619632,0.9688750334333103,0.43870967741935485,0.046882514506872974,0.3761646385927415,0.4485294117647059,1.5669451831312613,0.1980982895316897,0.5178571428571429,0.27741935483870966,0.3274181442859921,0.313953488372093,0.123,0.09,0.032
Rhett Lashlee,2026,SMU,ACC,0,5,0,0,0,50.260000000000005,14.74,10.8,9.82,24.880000000000003,19.020000000000003,5.640000000000001,NA,NA,2.4,13,35.7,22.3,172,130,1730,16,172,691,8,2421,346,2.3354708066149175,2.263728053791558,69.2,60,0.21833020987828303,75.54225261788594,3.8205128205128207,0.4884393063583815,1.2675413699762985,0.6538461538461539,2.7484848484848485,0.9030303030303031,1.2363636363636363,66.1,1.673,8889,0.476878612716763,0.5029585798816568,-0.018922622296127244,-3.1222326788609958,0.43636363636363634,0.7494790369882337,0.5028901734104047,0.07817278471775357,0.4970414201183432,0.5140666518970836,89.44759743009254,0.5459770114942529,1.65670540671092,0.19590101895986686,0.5432098765432098,0.2976878612716763,0.27124567971493474,0.3592233009708738,0.139,0.101,0.038,320,59,0.044840551952483446,14.348976624794702,3.56,0.36875,1.3789948556170148,0.4166666666666667,2.6145695364238413,1.1721854304635762,1.880794701986755,74.1,-1.098,0.471875,0.05813043170683047,8.777695187731402,0.4304635761589404,1.1279783483041022,0.50625,-0.030131795986865995,0.050296404631551564,0.30864197530864196,1.7719300668369942,-0.03692536297026254,0.4392523364485981,0.33125,0.20991513490972533,0.22641509433962265,0.216,0.163,0.053
